##NAMES=Benitoite
##RRUFFID=R050320
##IDEAL CHEMISTRY=BaTi^4+^Si_3_O_9_
##LOCALITY=San Benito County, California, USA
##OWNER=RRUFF
##SOURCE=American Museum of Natural History
##DESCRIPTION=Blue fragment
##STATUS=The identification of this mineral has been confirmed by X-ray diffraction and chemical analysis
##URL=rruff.info/R050320
##MEASURED CHEMISTRY=Ba_1.00_Ti_1.00_(Si_2.99_Al_0.01_)_Î£=3_O_9_
108.5325, 162.7805
110.4609, 199.2314
112.3894, 237.3949
114.3179, 270.5883
116.2463, 296.5217
118.1748, 317.5508
120.1033, 336.6001
122.0317, 354.2620
123.9602, 369.3553
125.8887, 372.7448
127.8171, 360.4807
129.7456, 349.0943
131.6741, 334.7262
133.6025, 320.5519
135.5310, 320.6071
137.4595, 336.6172
139.3879, 359.9073
141.3164, 385.4422
143.2449, 411.9222
145.1733, 443.6707
147.1018, 478.6284
149.0303, 518.0297
150.9587, 567.2720
152.8872, 624.3516
154.8157, 692.7206
156.7441, 774.0569
158.6726, 909.6416
160.6011, 1016.569
162.5295, 1091.492
164.4580, 1135.225
166.3865, 1122.719
168.3149, 999.9057
170.2434, 834.4591
172.1719, 707.1368
174.1003, 622.3423
176.0288, 562.4908
177.9573, 526.9592
179.8857, 516.0527
181.8142, 512.8864
183.7427, 513.0825
185.6711, 519.0724
187.5996, 534.5942
189.5281, 558.8435
191.4565, 593.3604
193.3850, 636.7382
195.3135, 688.8568
197.2419, 752.2741
199.1704, 838.5402
201.0989, 935.6887
203.0273, 1019.550
204.9558, 1089.772
206.8843, 1144.355
208.8127, 1175.053
210.7412, 1149.304
212.6697, 1162.951
214.5981, 1255.956
216.5266, 1400.037
218.4551, 1523.988
220.3835, 1658.955
222.3120, 1748.657
224.2405, 1739.378
226.1689, 1616.127
228.0974, 1478.189
230.0259, 1334.770
231.9543, 1188.933
233.8828, 1075.001
235.8113, 1002.096
237.7397, 950.3460
239.6682, 907.1406
241.5967, 868.7234
243.5251, 849.0505
245.4536, 847.5046
247.3821, 865.1814
249.3105, 904.9921
251.2390, 975.2579
253.1675, 1060.464
255.0959, 1148.424
257.0244, 1231.067
258.9529, 1335.524
260.8813, 1485.482
262.8098, 1668.430
264.7383, 1817.625
266.6667, 1963.487
268.5952, 2042.465
270.5237, 2025.149
272.4521, 1844.546
274.3806, 1646.753
276.3091, 1417.264
278.2375, 1174.243
280.1660, 965.6870
282.0945, 804.2469
284.0229, 673.6077
285.9514, 566.5959
287.8799, 489.1916
289.8083, 428.5399
291.7368, 391.1370
293.6653, 371.1177
295.5938, 356.5880
297.5222, 348.4583
299.4507, 344.8586
301.3792, 346.8208
303.3076, 355.8382
305.2361, 364.2043
307.1646, 369.5598
309.0930, 373.5439
311.0215, 379.4984
312.9500, 382.5855
314.8784, 391.9069
316.8069, 413.2727
318.7354, 446.4829
320.6638, 482.1757
322.5923, 520.1522
324.5208, 559.3918
326.4492, 598.6517
328.3777, 638.7379
330.3062, 678.1562
332.2346, 714.7904
334.1631, 748.9807
336.0915, 787.2960
338.0200, 812.3469
339.9485, 849.0741
341.8769, 930.7690
343.8054, 1071.649
345.7339, 1226.786
347.6623, 1410.862
349.5908, 1616.289
351.5193, 1756.901
353.4477, 1786.657
355.3762, 1779.361
357.3047, 1776.678
359.2331, 1769.406
361.1616, 1792.295
363.0901, 1864.642
365.0185, 1976.133
366.9470, 2094.806
368.8755, 2272.095
370.8039, 2415.633
372.7324, 2483.483
374.6609, 2487.387
376.5893, 2405.886
378.5178, 2181.425
380.4463, 1881.406
382.3747, 1606.027
384.3032, 1329.191
386.2317, 1100.181
388.1601, 946.0362
390.0886, 856.9597
392.0171, 798.0080
393.9455, 789.6118
395.8740, 795.0343
397.8025, 786.3495
399.7309, 767.7589
401.6594, 729.9486
403.5879, 654.2729
405.5163, 554.0843
407.4448, 470.0487
409.3733, 408.1345
411.3017, 359.1685
413.2302, 322.3012
415.1587, 297.9341
417.0871, 279.5537
419.0156, 268.9840
420.9441, 263.3721
422.8725, 259.5283
424.8010, 257.7625
426.7295, 257.5126
428.6579, 258.1477
430.5864, 260.0145
432.5149, 265.2479
434.4433, 277.9098
436.3718, 291.4276
438.3003, 301.7352
440.2287, 305.3990
442.1572, 310.2439
444.0857, 315.5085
446.0141, 322.3708
447.9426, 332.3471
449.8711, 346.0975
451.7995, 362.7353
453.7280, 381.8404
455.6565, 403.6971
457.5849, 427.9328
459.5134, 459.6022
461.4419, 490.3325
463.3703, 514.0096
465.2988, 526.6173
467.2273, 540.4196
469.1557, 557.8801
471.0842, 578.3697
473.0127, 599.0058
474.9411, 618.7425
476.8696, 640.0529
478.7981, 667.3754
480.7265, 703.7997
482.6550, 725.0916
484.5835, 721.7694
486.5119, 709.0969
488.4404, 701.1626
490.3689, 698.7114
492.2973, 697.2048
494.2258, 696.2021
496.1543, 695.3550
498.0827, 693.3369
500.0112, 687.5450
501.9397, 683.0421
503.8681, 681.3963
505.7966, 682.4582
507.7251, 685.8673
509.6535, 686.7536
511.5820, 693.4971
513.5105, 711.9834
515.4390, 738.4362
517.3674, 783.7502
519.2959, 848.4729
521.2244, 934.1945
523.1528, 1038.626
525.0813, 1162.791
527.0098, 1306.343
528.9382, 1476.532
530.8667, 1675.587
532.7952, 1855.120
534.7236, 2072.854
536.6521, 2225.955
538.5806, 2251.010
540.5090, 2138.288
542.4375, 1976.541
544.3660, 1732.056
546.2944, 1465.995
548.2229, 1269.565
550.1514, 1150.578
552.0798, 1072.324
554.0083, 1033.963
555.9368, 1030.183
557.8652, 1056.563
559.7937, 1120.695
561.7222, 1210.761
563.6506, 1317.126
565.5791, 1438.860
567.5076, 1615.127
569.4360, 1859.387
571.3645, 2155.971
573.2930, 2527.406
575.2214, 3103.972
577.1499, 3427.122
579.0784, 3404.875
581.0068, 3120.341
582.9352, 2698.396
584.8637, 2044.442
586.7922, 1458.309
588.7206, 1048.685
590.6491, 792.3245
592.5776, 598.0208
594.5060, 494.3872
596.4345, 423.9869
598.3630, 374.6009
600.2914, 345.9530
602.2199, 323.0281
604.1484, 307.1171
606.0768, 294.7117
608.0053, 283.2052
609.9338, 271.7444
611.8622, 263.2722
613.7907, 259.3381
615.7192, 257.8532
617.6476, 255.8251
619.5761, 252.8477
621.5046, 250.4456
623.4330, 249.1443
625.3615, 248.7505
627.2900, 248.7671
629.2184, 249.9433
631.1469, 250.7271
633.0754, 249.9902
635.0038, 248.1817
636.9323, 247.7637
638.8608, 249.9205
640.7892, 252.6063
642.7177, 254.9168
644.6462, 256.8702
646.5746, 258.2693
648.5031, 259.9254
650.4316, 260.5442
652.3600, 258.6364
654.2885, 253.8273
656.2170, 249.4068
658.1454, 245.8682
660.0739, 243.2324
662.0024, 241.6394
663.9308, 243.3423
665.8593, 243.3800
667.7878, 239.4650
669.7162, 233.8540
671.6447, 230.9165
673.5732, 231.9246
675.5016, 233.6905
677.4301, 235.6745
679.3586, 237.7455
681.2870, 238.3953
683.2155, 236.8536
685.1440, 234.8754
687.0724, 232.3290
689.0009, 229.5268
690.9294, 228.8184
692.8578, 231.7610
694.7863, 235.8979
696.7148, 240.4510
698.6432, 246.0401
700.5717, 249.8144
702.5002, 252.7841
704.4286, 253.2459
706.3571, 248.2835
708.2856, 236.8225
710.2141, 229.4703
712.1425, 230.2692
714.0710, 235.2113
715.9995, 241.1185
717.9279, 250.9392
719.8564, 257.2601
721.7849, 255.7245
723.7133, 252.0773
725.6418, 254.1104
727.5703, 264.3503
729.4987, 273.7350
731.4272, 279.0750
733.3557, 281.9554
735.2841, 285.9840
737.2126, 291.0506
739.1411, 297.2802
741.0695, 305.2487
742.9980, 314.4327
744.9265, 323.9786
746.8549, 336.0335
748.7834, 344.5611
750.7119, 347.3946
752.6403, 344.9945
754.5688, 340.9772
756.4973, 334.2041
758.4257, 327.2404
760.3542, 320.8546
762.2827, 314.9199
764.2111, 308.9532
766.1396, 302.1748
768.0681, 296.2563
769.9965, 292.5366
771.9250, 291.3430
773.8535, 287.8900
775.7819, 279.1324
777.7104, 271.2282
779.6389, 267.4504
781.5673, 267.3612
783.4958, 268.6002
785.4243, 272.4436
787.3527, 275.9211
789.2812, 277.1007
791.2097, 274.9850
793.1381, 274.9305
795.0666, 278.8196
796.9951, 282.9670
798.9235, 284.7977
800.8520, 284.4897
802.7805, 284.8234
804.7089, 288.0950
806.6374, 290.3581
808.5659, 288.6010
810.4943, 280.3024
812.4228, 276.0769
814.3513, 278.4188
816.2797, 282.4335
818.2082, 285.0195
820.1367, 286.1897
822.0651, 286.7314
823.9936, 287.0143
825.9221, 286.3787
827.8505, 283.7749
829.7790, 277.7513
831.7075, 275.4059
833.6359, 279.1992
835.5644, 284.5858
837.4929, 288.0144
839.4213, 289.2534
841.3498, 292.5497
843.2783, 300.4286
845.2067, 308.7393
847.1352, 314.2821
849.0637, 316.1481
850.9921, 320.4061
852.9206, 328.7765
854.8491, 338.4274
856.7775, 347.4134
858.7060, 355.4790
860.6345, 364.9666
862.5629, 375.0591
864.4914, 387.5624
866.4199, 402.8593
868.3483, 420.8399
870.2768, 443.1468
872.2053, 470.9374
874.1337, 502.4182
876.0622, 537.5168
877.9907, 576.8648
879.9191, 616.7270
881.8476, 648.6222
883.7761, 688.8831
885.7045, 745.7987
887.6330, 817.8043
889.5615, 900.8420
891.4899, 1009.019
893.4184, 1112.727
895.3469, 1196.342
897.2753, 1259.685
899.2038, 1333.156
901.1323, 1415.802
903.0607, 1508.397
904.9892, 1606.290
906.9177, 1714.018
908.8461, 1850.555
910.7746, 2033.259
912.7031, 2219.615
914.6315, 2394.557
916.5600, 2560.037
918.4885, 2724.120
920.4169, 2865.395
922.3454, 3030.357
924.2739, 3240.873
926.2023, 3480.634
928.1308, 3717.900
930.0593, 3965.917
931.9877, 4178.218
933.9162, 4367.086
935.8447, 4503.975
937.7731, 4539.400
939.7016, 4467.835
941.6301, 4291.150
943.5585, 3946.927
945.4870, 3530.858
947.4155, 3161.803
949.3439, 2841.962
951.2724, 2543.275
953.2009, 2273.247
955.1293, 2015.296
957.0578, 1749.543
958.9863, 1469.242
960.9147, 1226.898
962.8432, 1035.721
964.7717, 879.4690
966.7001, 752.1292
968.6286, 657.0190
970.5571, 581.3028
972.4855, 532.9525
974.4140, 495.7332
976.3425, 464.3215
978.2709, 438.0600
980.1994, 415.9012
982.1279, 398.0139
984.0563, 384.1663
985.9848, 374.3138
987.9133, 368.1889
989.8417, 364.7176
991.7702, 365.3294
993.6987, 366.8451
995.6271, 367.2131
997.5556, 368.7730
999.4841, 375.5748
1001.413, 388.1779
1003.341, 403.3834
1005.269, 424.7657
1007.198, 445.7083
1009.126, 459.4829
1011.055, 463.8456
1012.983, 467.9505
1014.912, 474.4907
1016.840, 479.4095
1018.769, 479.4537
1020.697, 473.8266
1022.626, 468.7922
1024.554, 469.8852
1026.483, 465.7228
1028.411, 446.1735
1030.340, 416.4628
1032.268, 393.3063
1034.197, 380.3411
1036.125, 370.1888
1038.053, 360.8330
1039.982, 352.4383
1041.910, 345.4326
1043.839, 336.7297
1045.767, 333.6609
1047.696, 338.5446
1049.624, 348.3017
1051.553, 361.3795
1053.481, 378.5214
1055.410, 390.5615
1057.338, 393.2287
1059.267, 392.7262
1061.195, 394.6277
1063.124, 399.4243
1065.052, 394.6320
1066.980, 369.9276
1068.909, 346.1511
1070.837, 330.1100
1072.766, 320.2371
1074.694, 310.1927
1076.623, 299.3690
1078.551, 289.6118
1080.480, 281.2289
1082.408, 274.3095
1084.337, 268.3597
1086.265, 262.9586
1088.193, 260.9639
1090.122, 264.9066
1092.050, 271.0076
1093.979, 278.3201
1095.907, 287.6085
1097.836, 292.1327
1099.764, 288.4472
1101.693, 284.3728
1103.621, 283.0699
1105.550, 283.5017
1107.478, 282.2789
1109.407, 278.7668
1111.335, 275.3284
1113.264, 273.6401
1115.192, 271.8314
1117.120, 267.6733
1119.049, 260.6318
1120.977, 253.9429
1122.906, 246.9447
1124.834, 241.4111
1126.763, 238.6645
1128.691, 238.7115
1130.620, 238.9225
1132.548, 239.2738
1134.477, 239.7532
1136.405, 241.4745
1138.334, 242.9155
1140.262, 240.9239
1142.191, 234.3163
1144.119, 229.6604
1146.047, 230.9965
1147.976, 232.9491
1149.904, 230.8212
1151.833, 223.8477
1153.761, 220.2760
1155.690, 224.2048
1157.618, 227.4527
1159.547, 226.8176
1161.475, 223.4076
1163.404, 220.8671
1165.332, 218.8073
1167.261, 218.1787
1169.189, 221.0055
1171.118, 224.0774
1173.046, 223.6077
1174.974, 219.6817
1176.903, 218.1171
1178.831, 222.0457
1180.760, 225.4568
1182.688, 225.0163
1184.617, 221.8116
1186.545, 220.4481
1188.474, 222.3303
1190.402, 223.9944
1192.331, 224.4923
1194.259, 224.8823
1196.188, 226.2361
1198.116, 228.6369
1200.045, 231.4694
1201.973, 235.6700
1203.901, 239.2061
1205.830, 241.1774
1207.758, 241.7938
1209.687, 241.6378
1211.615, 241.0710
1213.544, 238.7254
1215.472, 230.8764
1217.401, 223.5104
1219.329, 222.3268
1221.258, 229.0146
1223.186, 232.7302
1225.115, 231.4031
1227.043, 229.3744
1228.972, 227.3172
1230.900, 225.6135
1232.828, 225.6073
1234.757, 228.3580
1236.685, 229.7646
1238.614, 228.5953
1240.542, 226.3285
1242.471, 223.1809
1244.399, 219.5539
1246.328, 218.3460
1248.256, 221.2742
1250.185, 223.8989
1252.113, 224.3765
1254.042, 223.7163
1255.970, 223.3793
1257.899, 223.7444
1259.827, 223.1411
1261.755, 219.3889
1263.684, 216.7322
1265.612, 218.0646
1267.541, 222.5263
1269.469, 225.5125
1271.398, 226.8528
1273.326, 227.1853
1275.255, 225.3598
1277.183, 223.4742
1279.112, 223.5069
1281.040, 225.3129
1282.969, 228.1598
1284.897, 233.4107
1286.826, 237.2132
1288.754, 237.4304
1290.682, 235.4257
1292.611, 232.6902
1294.539, 228.6494
1296.468, 226.3263
1298.396, 227.8397
1300.325, 229.3997
1302.253, 228.8884
1304.182, 226.8629
1306.110, 226.0143
1308.039, 228.1107
1309.967, 228.8531
1311.896, 226.2439
1313.824, 223.5687
1315.753, 223.8730
1317.681, 226.9775
1319.609, 229.3731
1321.538, 231.0137
1323.466, 231.8965
1325.395, 231.7366
1327.323, 230.9592
1329.252, 230.0175
1331.180, 228.9172
1333.109, 227.5901
1335.037, 225.2696
1336.966, 223.9581
1338.894, 225.2826
1340.823, 227.8003
1342.751, 228.8010
1344.680, 227.9972
1346.608, 226.3917
1348.536, 221.8049
1350.465, 218.8081
1352.393, 220.9996
1354.322, 226.6222
1356.250, 229.3757
1358.179, 228.6118
1360.107, 226.3964
1362.036, 221.2825
1363.964, 216.2418
1365.893, 212.7075
1367.821, 210.8821
1369.750, 211.7771
1371.678, 216.6903
1373.607, 220.5725
1375.535, 221.1864
1377.464, 220.8704
1379.392, 221.7196
1381.320, 223.3748
1383.249, 223.4069
1385.177, 220.8452
1387.106, 218.4843
1389.034, 216.1907
1390.963, 215.1951
1392.891, 217.4492
1394.820, 223.5060
1396.748, 226.6765
1398.677, 223.8779
1400.605, 222.1736
1402.534, 224.9830
1404.462, 228.1153
1406.391, 226.2739
1408.319, 218.4876
1410.247, 213.3543
1412.176, 210.8865
1414.104, 210.8783
1416.033, 214.3054
1417.961, 219.5967
1419.890, 226.0075
1421.818, 233.5906
1423.747, 236.8919
1425.675, 233.4279
1427.604, 229.3355
1429.532, 225.0851
1431.461, 222.5951
1433.389, 224.9674
1435.318, 231.9312
1437.246, 236.1946
1439.174, 235.1246
1441.103, 234.5884
1443.031, 237.6592
1444.960, 241.9054
1446.888, 245.0563
1448.817, 247.1159
1450.745, 247.6682
1452.674, 245.9120
1454.602, 243.9081
1456.531, 240.5996
1458.459, 238.4597
1460.388, 241.1083
1462.316, 249.5721
1464.245, 254.8047
1466.173, 255.1514
1468.101, 254.4577
1470.030, 252.6705
1471.958, 250.5950
1473.887, 248.6057
1475.815, 246.6649
1477.744, 246.7928
1479.672, 250.7272
1481.601, 254.0504
1483.529, 256.2877
1485.458, 257.4628
1487.386, 256.5628
1489.315, 254.2013
1491.243, 255.0478
1493.172, 261.0576
1495.100, 265.0881
1497.028, 264.6747
1498.957, 262.2221
1500.885, 258.3312
1502.814, 253.7724
1504.742, 250.9065
1506.671, 250.1759
1508.599, 249.6027
1510.528, 249.1969
1512.456, 248.3143
1514.385, 246.1873
1516.313, 243.4486
1518.242, 241.1031
1520.170, 238.8792
1522.099, 238.9770
1524.027, 243.7849
1525.955, 248.0828
1527.884, 250.3251
1529.812, 250.5063
1531.741, 247.7094
1533.669, 241.0870
1535.598, 237.7717
1537.526, 240.2627
1539.455, 243.2200
1541.383, 246.0732
1543.312, 248.2092
1545.240, 249.0531
1547.169, 248.5810
1549.097, 246.9415
1551.026, 241.3791
1552.954, 238.7057
1554.882, 242.2527
1556.811, 246.3420
1558.739, 246.4044
1560.668, 243.6584
1562.596, 243.3382
1564.525, 248.2850
1566.453, 250.2348
1568.382, 247.2674
1570.310, 243.4886
1572.239, 241.0273
1574.167, 238.7800
1576.096, 233.6842
1578.024, 224.4098
1579.953, 221.6028
1581.881, 231.3663
1583.809, 239.1218
1585.738, 240.5964
1587.666, 238.9045
1589.595, 235.5673
1591.523, 231.1900
1593.452, 230.1836
1595.380, 234.1595
1597.309, 236.6685
1599.237, 235.1366
1601.166, 233.2340
1603.094, 233.0903
1605.023, 233.9116
1606.951, 233.7570
1608.880, 232.4932
1610.808, 233.5016
1612.736, 238.6772
1614.665, 243.3269
1616.593, 245.8349
1618.522, 246.8313
1620.450, 247.2851
1622.379, 246.8184
1624.307, 242.6273
1626.236, 232.5690
1628.164, 227.6175
1630.093, 234.3948
1632.021, 241.6687
1633.950, 242.6489
1635.878, 240.2679
1637.807, 238.6124
1639.735, 237.7176
1641.663, 237.1240
1643.592, 237.1368
1645.520, 236.5964
1647.449, 233.9047
1649.377, 231.6680
1651.306, 232.3226
1653.234, 234.8935
1655.163, 236.5115
1657.091, 237.0665
1659.020, 236.5285
1660.948, 232.8509
1662.877, 231.4161
1664.805, 237.8749
1666.734, 245.5368
1668.662, 246.2850
1670.590, 241.2560
1672.519, 239.2629
1674.447, 241.6155
1676.376, 244.1939
1678.304, 247.1425
1680.233, 248.6036
1682.161, 245.9909
1684.090, 242.1092
1686.018, 242.3177
1687.947, 246.5624
1689.875, 248.5700
1691.804, 247.6982
1693.732, 244.8890
1695.661, 236.8670
1697.589, 230.9195
1699.517, 233.7422
1701.446, 241.2584
1703.374, 243.5090
1705.303, 240.0882
1707.231, 237.2045
1709.160, 235.2346
1711.088, 234.3884
1713.017, 235.6965
1714.945, 237.2308
1716.874, 237.5157
1718.802, 237.0261
1720.731, 236.6603
1722.659, 236.1762
1724.588, 238.9153
1726.516, 249.0783
1728.444, 254.9642
1730.373, 246.7158
1732.301, 237.8075
1734.230, 241.0336
1736.158, 251.4213
1738.087, 252.6101
1740.015, 243.0153
1741.944, 237.1792
1743.872, 238.8337
1745.801, 240.9201
1747.729, 240.6916
1749.658, 239.9904
1751.586, 239.8563
1753.515, 240.4035
1755.443, 242.4131
1757.371, 246.1178
1759.300, 248.3454
1761.228, 248.4832
1763.157, 247.4858
1765.085, 244.2493
1767.014, 241.4823
1768.942, 241.4467
1770.871, 243.2527
1772.799, 245.2084
1774.728, 247.2985
1776.656, 248.7662
1778.585, 249.5561
1780.513, 249.6716
1782.442, 248.5706
1784.370, 247.4173
1786.298, 247.3952
1788.227, 247.6877
1790.155, 246.1180
1792.084, 242.8517
1794.012, 243.0991
1795.941, 249.5838
1797.869, 252.6787
1799.798, 245.7539
1801.726, 239.5417
1803.655, 240.9603
1805.583, 246.1045
1807.512, 250.7165
1809.440, 254.4792
1811.369, 253.1595
1813.297, 243.8415
1815.225, 239.3365
1817.154, 245.9725
1819.082, 252.5650
1821.011, 254.2647
1822.939, 254.2260
1824.868, 256.3084
1826.796, 259.5258
1828.725, 258.9769
1830.653, 253.0656
1832.582, 250.3826
1834.510, 253.7912
1836.439, 256.9281
1838.367, 258.7181
1840.296, 259.4836
1842.224, 259.1019
1844.152, 257.9750
1846.081, 256.6762
1848.009, 255.1013
1849.938, 254.5750
1851.866, 256.1544
1853.795, 257.1100
1855.723, 256.1729
1857.652, 256.0278
1859.580, 259.3778
1861.509, 262.6978
1863.437, 261.3257
1865.366, 256.5301
1867.294, 255.1806
1869.223, 259.0974
1871.151, 258.1942
1873.079, 247.1637
1875.008, 240.1968
1876.936, 242.6302
1878.865, 247.6680
1880.793, 253.6073
1882.722, 258.7975
1884.650, 259.7384
1886.579, 257.1663
1888.507, 257.7408
1890.436, 262.8141
1892.364, 264.1085
1894.293, 257.6268
1896.221, 252.5875
1898.150, 253.7448
1900.078, 256.3779
1902.006, 257.6961
1903.935, 257.8130
1905.863, 255.6053
1907.792, 251.6768
1909.720, 253.2121
1911.649, 262.9826
1913.577, 268.3977
1915.506, 264.2831
1917.434, 259.5977
1919.363, 256.8300
1921.291, 255.6741
1923.220, 256.7899
1925.148, 259.0431
1927.077, 259.4455
1929.005, 257.7354
1930.933, 258.4662
1932.862, 264.9115
1934.790, 267.8835
1936.719, 263.6492
1938.647, 260.4040
1940.576, 262.4237
1942.504, 264.8773
1944.433, 262.2808
1946.361, 257.7996
1948.290, 259.6894
1950.218, 268.6206
1952.147, 271.2219
1954.075, 265.3371
1956.004, 260.0064
1957.932, 255.1766
1959.860, 253.2329
1961.789, 257.6862
1963.717, 262.3725
1965.646, 262.8618
1967.574, 261.1920
1969.503, 260.5768
1971.431, 260.7565
1973.360, 259.7248
1975.288, 256.9394
1977.217, 257.2077
1979.145, 264.0857
1981.074, 267.7725
1983.002, 261.6165
1984.931, 255.5963
1986.859, 255.9165
1988.787, 259.0412
1990.716, 261.0123
1992.644, 262.0707
1994.573, 263.3492
1996.501, 265.2461
1998.430, 265.5755
2000.358, 262.1426
2002.287, 260.6926
2004.215, 263.9316
2006.144, 266.0743
2008.072, 263.3633
2010.001, 260.4000
2011.929, 261.3279
2013.858, 264.3849
2015.786, 266.3935
2017.714, 267.3913
2019.643, 267.8091
2021.571, 267.6937
2023.500, 266.8813
2025.428, 265.4829
2027.357, 262.9919
2029.285, 256.6874
2031.214, 252.8597
2033.142, 257.4807
2035.071, 264.0421
2036.999, 264.9594
2038.928, 262.9678
2040.856, 265.8148
2042.785, 273.7426
2044.713, 277.3850
2046.641, 274.1461
2048.570, 272.4641
2050.499, 274.4765
2052.427, 275.2108
2054.355, 272.1191
2056.284, 269.3454
2058.212, 269.0475
2060.141, 270.1221
2062.069, 272.4748
2063.998, 274.9700
2065.926, 273.3192
2067.854, 267.9551
2069.783, 266.4184
2071.711, 269.8600
2073.640, 272.0335
2075.568, 271.7946
2077.497, 270.6623
2079.425, 268.3745
2081.354, 266.3540
2083.282, 265.1957
2085.211, 264.7535
2087.139, 265.6071
2089.068, 266.7582
2090.996, 265.3030
2092.925, 261.4519
2094.853, 260.8918
2096.781, 265.5700
2098.710, 267.9428
2100.638, 266.8973
2102.567, 265.7368
2104.495, 265.6291
2106.424, 264.5625
2108.352, 259.3297
2110.281, 255.5434
2112.209, 259.8621
2114.138, 265.7936
2116.066, 262.3676
2117.995, 253.8069
2119.923, 254.5300
2121.852, 264.6527
2123.780, 270.5406
2125.708, 270.8242
2127.637, 269.1679
2129.565, 263.5614
2131.494, 259.8469
2133.422, 259.6259
2135.351, 261.0125
2137.279, 264.1710
2139.208, 267.5047
2141.136, 270.2961
2143.065, 271.9223
2144.993, 270.5564
2146.922, 267.0029
2148.850, 264.4351
2150.779, 262.9535
2152.707, 266.2494
2154.635, 276.4816
2156.564, 281.2884
2158.492, 276.2126
2160.421, 270.3326
2162.349, 265.8099
2164.278, 261.8010
2166.206, 256.0338
2168.135, 252.5592
2170.063, 256.8500
2171.992, 264.2794
2173.920, 267.6741
2175.849, 267.8143
2177.777, 267.7370
2179.706, 267.4485
2181.634, 268.4492
2183.563, 271.0037
2185.491, 273.5197
2187.419, 276.4016
2189.348, 277.1168
2191.276, 273.3354
2193.205, 270.0432
2195.133, 269.1548
2197.062, 269.5608
2198.990, 270.8211
2200.919, 272.8197
2202.847, 277.1107
2204.776, 281.3252
2206.704, 278.1627
2208.633, 269.1732
2210.561, 269.9091
2212.490, 281.0529
2214.418, 285.8454
2216.346, 282.4998
2218.275, 277.0927
2220.203, 267.8616
2222.132, 264.7815
2224.060, 276.3543
2225.989, 286.0183
2227.917, 283.9110
2229.846, 281.4911
2231.774, 288.8915
2233.703, 297.3974
2235.631, 297.4713
2237.560, 291.8243
2239.488, 283.3199
2241.417, 273.5951
2243.345, 275.2657
2245.273, 287.6795
2247.202, 289.9673
2249.130, 279.5901
2251.059, 273.2031
2252.987, 273.8354
2254.916, 275.9312
2256.844, 279.7858
2258.773, 282.4126
2260.701, 283.1232
2262.630, 282.1149
2264.558, 277.5392
2266.487, 273.4381
2268.415, 273.7665
2270.344, 275.8208
2272.272, 275.9631
2274.200, 275.3040
2276.129, 276.9674
2278.057, 280.0827
2279.986, 280.1783
2281.914, 277.2159
2283.843, 277.7910
2285.771, 284.0294
2287.700, 286.4948
2289.628, 281.7912
2291.557, 278.0885
2293.485, 277.5692
2295.414, 275.7438
2297.342, 268.9809
2299.271, 264.5021
2301.199, 265.9625
2303.127, 269.4709
2305.056, 274.6574
2306.984, 278.5316
2308.913, 277.0645
2310.841, 273.0658
2312.770, 270.6264
2314.698, 269.5284
2316.627, 269.2797
2318.555, 269.8318
2320.484, 269.2096
2322.412, 266.7819
2324.341, 269.8894
2326.269, 280.3781
2328.198, 284.9727
2330.126, 280.1678
2332.054, 277.1435
2333.983, 279.4351
2335.911, 281.4386
2337.840, 281.8185
2339.768, 281.0641
2341.697, 277.1837
2343.625, 275.0433
2345.554, 279.3991
2347.482, 284.8500
2349.411, 287.5771
2351.339, 287.9643
2353.268, 285.1560
2355.196, 281.0346
2357.125, 278.3570
2359.053, 277.4908
2360.981, 281.5770
2362.910, 289.9239
2364.838, 289.1548
2366.767, 276.5093
2368.695, 272.7623
2370.624, 281.8174
2372.552, 285.1422
2374.481, 280.0473
2376.409, 275.4620
2378.338, 272.2063
2380.266, 271.6016
2382.195, 276.6643
2384.123, 279.5063
2386.052, 274.2993
2387.980, 270.0730
2389.908, 271.9789
2391.837, 275.3324
2393.765, 277.3345
2395.694, 279.0057
2397.622, 281.7582
2399.551, 284.3801
2401.479, 285.8344
2403.408, 285.7880
2405.336, 282.2357
2407.265, 277.0687
2409.193, 275.9446
2411.122, 278.4818
2413.050, 282.4347
2414.979, 288.0938
2416.907, 289.7608
2418.835, 287.0625
2420.764, 283.5685
2422.692, 278.8794
2424.621, 278.8607
2426.549, 285.9471
2428.478, 290.9377
2430.406, 291.9613
2432.335, 290.9054
2434.263, 286.1338
2436.192, 282.4381
2438.120, 281.0161
2440.049, 280.8943
2441.977, 282.6237
2443.906, 284.2273
2445.834, 284.8986
2447.762, 284.8329
2449.691, 284.1363
2451.619, 282.8164
2453.548, 279.2396
2455.476, 276.5332
2457.405, 280.7655
2459.333, 286.8698
2461.262, 284.8559
2463.190, 278.9339
2465.119, 279.8456
2467.047, 285.0237
2468.976, 287.3119
2470.904, 286.8070
2472.833, 284.1649
2474.761, 279.4207
2476.689, 277.6287
2478.618, 279.1159
2480.546, 281.6956
2482.475, 285.5533
2484.403, 288.8360
2486.332, 291.5156
2488.260, 292.3708
2490.189, 290.4451
2492.117, 289.5301
2494.046, 290.6893
2495.974, 292.1331
2497.903, 296.3047
2499.831, 296.0048
2501.760, 286.1803
2503.688, 279.8334
2505.616, 282.5533
2507.545, 285.9114
2509.473, 285.6892
2511.402, 286.0248
2513.330, 291.7724
2515.259, 294.8263
2517.187, 286.4459
2519.116, 278.3605
2521.044, 279.6347
2522.973, 283.9251
2524.901, 286.3022
2526.830, 288.9490
2528.758, 296.3146
2530.687, 303.1039
2532.615, 301.6963
2534.543, 296.0786
2536.472, 291.0757
2538.400, 287.3915
2540.329, 287.1613
2542.257, 289.0758
2544.186, 290.4582
2546.114, 291.1435
2548.043, 290.3528
2549.971, 288.5012
2551.900, 286.8996
2553.828, 285.7944
2555.757, 288.9079
2557.685, 295.9174
2559.614, 296.0770
2561.542, 289.8702
2563.470, 287.2793
2565.399, 288.8888
2567.327, 290.0516
2569.256, 290.5340
2571.184, 290.0965
2573.113, 287.8264
2575.041, 288.3581
2576.970, 292.3294
2578.898, 296.1669
2580.827, 299.9378
2582.755, 300.8572
2584.684, 297.0214
2586.612, 295.0425
2588.541, 296.8657
2590.469, 298.7791
2592.397, 301.3949
2594.326, 301.5211
2596.254, 296.9158
2598.183, 295.3911
2600.111, 301.2690
2602.040, 304.8378
2603.968, 300.1423
2605.897, 298.1367
2607.825, 305.3289
2609.754, 309.0532
2611.682, 303.3922
2613.611, 299.7644
2615.539, 304.0715
2617.468, 307.1912
2619.396, 303.9783
2621.324, 300.7058
2623.253, 300.7049
2625.181, 300.3069
2627.110, 297.3832
2629.038, 294.4060
2630.967, 291.7731
2632.895, 290.3453
2634.824, 289.4053
2636.752, 291.3813
2638.681, 303.5868
2640.609, 311.3660
2642.538, 298.7789
2644.466, 287.5650
2646.395, 293.9112
2648.323, 302.6000
2650.251, 304.0144
2652.180, 303.1898
2654.108, 302.5046
2656.037, 302.7309
2657.965, 306.8399
2659.894, 309.3568
2661.822, 302.9105
2663.751, 296.2933
2665.679, 296.5648
2667.608, 299.4448
2669.536, 302.7755
2671.465, 305.0921
2673.393, 304.6805
2675.322, 302.9683
2677.250, 300.0226
2679.178, 297.9128
2681.107, 299.8688
2683.035, 301.9951
2684.964, 299.5037
2686.892, 296.3442
2688.821, 297.2649
2690.749, 299.0188
2692.678, 295.7764
2694.606, 294.3290
2696.535, 305.8284
2698.463, 317.1616
2700.392, 310.4937
2702.320, 301.0726
2704.249, 308.9068
2706.177, 319.1123
2708.105, 313.3452
2710.034, 304.1409
2711.962, 304.0843
2713.891, 306.3324
2715.819, 301.7660
2717.748, 298.3598
2719.676, 308.3399
2721.605, 319.6063
2723.533, 319.2824
2725.462, 314.7719
2727.390, 311.0039
2729.319, 308.3656
2731.247, 307.3933
2733.176, 307.5465
2735.104, 308.7094
2737.032, 310.3035
2738.961, 312.1184
2740.889, 313.7282
2742.818, 314.2478
2744.746, 315.0425
2746.675, 318.2278
2748.603, 320.9566
2750.532, 320.0190
2752.460, 318.9184
2754.389, 321.7654
2756.317, 323.1551
2758.246, 317.3730
2760.174, 311.4348
2762.103, 309.9385
2764.031, 310.1427
2765.959, 310.6085
2767.888, 311.8466
2769.816, 315.7739
2771.745, 317.9321
2773.673, 313.3627
2775.602, 309.9591
2777.530, 314.0421
2779.459, 316.8452
2781.387, 312.4475
2783.316, 310.2254
2785.244, 316.8150
2787.173, 321.3626
2789.101, 316.8770
2791.030, 313.3715
2792.958, 315.6026
2794.886, 316.7537
2796.815, 313.7416
2798.743, 313.3972
2800.672, 321.5096
2802.600, 325.2196
2804.529, 316.5667
2806.457, 311.9578
2808.386, 315.3917
2810.314, 317.3593
2812.243, 315.0542
2814.171, 315.4749
2816.100, 322.7357
2818.028, 326.2778
2819.957, 324.2157
2821.885, 321.4072
2823.813, 317.5444
2825.742, 318.7467
2827.670, 327.4266
2829.599, 328.6584
2831.527, 317.9228
2833.456, 313.6799
2835.384, 316.1989
2837.313, 321.5264
2839.241, 329.2879
2841.170, 335.5402
2843.098, 339.9756
2845.027, 334.9151
2846.955, 321.2361
2848.884, 315.1595
2850.812, 315.5916
2852.740, 318.9007
2854.669, 323.4190
2856.597, 322.3709
2858.526, 318.1825
2860.454, 318.7259
2862.383, 321.9363
2864.311, 321.4201
2866.240, 321.2421
2868.168, 332.0463
2870.097, 343.9148
2872.025, 338.9084
2873.954, 329.3915
2875.882, 331.3092
2877.811, 335.9021
2879.739, 336.1996
2881.667, 334.2826
2883.596, 330.8239
2885.524, 327.1985
2887.453, 322.1264
2889.381, 320.5464
2891.310, 328.5813
2893.238, 334.3770
2895.167, 327.2762
2897.095, 325.2186
2899.024, 341.3616
2900.952, 349.5034
2902.881, 340.9344
2904.809, 332.8217
2906.738, 329.1737
2908.666, 327.7075
2910.594, 327.2328
2912.523, 332.8571
2914.451, 346.7692
2916.380, 350.3354
2918.308, 339.7328
2920.237, 333.6561
2922.165, 333.4202
2924.094, 332.7985
2926.022, 331.8638
2927.951, 331.3988
2929.879, 331.4381
2931.808, 332.5733
2933.736, 334.0232
2935.665, 330.5508
2937.593, 326.1851
2939.521, 334.7819
2941.450, 346.7491
2943.378, 344.9275
2945.307, 339.5057
2947.235, 344.9710
2949.164, 352.4227
2951.092, 353.5769
2953.021, 352.6352
2954.949, 352.2349
2956.878, 351.1265
2958.806, 347.8967
2960.735, 344.7249
2962.663, 341.0962
2964.592, 340.7954
2966.520, 348.8705
2968.448, 352.3203
2970.377, 343.7615
2972.305, 340.1417
2974.234, 343.6429
2976.162, 345.6722
2978.091, 344.6504
2980.019, 347.5172
2981.948, 355.4853
2983.876, 358.1477
2985.805, 355.8602
2987.733, 349.2466
2989.662, 341.0699
2991.590, 343.5548
2993.519, 352.4414
2995.447, 358.2966
2997.375, 360.6210
2999.304, 356.2764
3001.232, 350.6139
3003.161, 349.1903
3005.089, 349.9052
3007.018, 351.6152
3008.946, 353.8232
3010.875, 356.8877
3012.803, 359.1955
3014.732, 359.8695
3016.660, 359.7127
3018.589, 357.8614
3020.517, 358.5461
3022.446, 363.8008
3024.374, 365.3116
3026.302, 358.8189
3028.231, 358.2465
3030.159, 364.0049
3032.088, 366.7021
3034.016, 366.0153
3035.945, 360.7238
3037.873, 352.9537
3039.802, 351.6398
3041.730, 354.6451
3043.659, 358.2871
3045.587, 361.7288
3047.516, 365.4911
3049.444, 366.6030
3051.373, 356.9073
3053.301, 351.1420
3055.229, 361.8340
3057.158, 371.5015
3059.086, 370.8925
3061.015, 369.0965
3062.943, 367.7510
3064.872, 366.7258
3066.800, 365.8438
3068.729, 366.3109
3070.657, 369.3356
3072.586, 367.5861
3074.514, 361.6052
3076.443, 365.1049
3078.371, 375.1169
3080.300, 375.9943
3082.228, 371.5853
3084.156, 369.2393
3086.085, 370.2047
3088.013, 380.7844
3089.942, 389.3676
3091.870, 381.8969
3093.799, 373.4328
3095.727, 373.4027
3097.656, 374.0595
3099.584, 372.3579
3101.513, 371.6681
3103.441, 372.9096
3105.370, 375.7203
3107.298, 380.4977
3109.227, 382.0714
3111.155, 379.8464
3113.083, 375.9773
3115.012, 371.5529
3116.940, 376.9609
3118.869, 386.9891
3120.797, 389.2881
3122.726, 388.1929
3124.654, 390.8089
3126.583, 391.7413
3128.511, 383.7381
3130.440, 376.8035
3132.368, 377.3768
3134.297, 378.6275
3136.225, 377.9889
3138.154, 378.8058
3140.082, 381.6049
3142.010, 386.3948
3143.939, 394.3850
3145.867, 395.5680
3147.796, 390.8116
3149.724, 388.1965
3151.653, 387.3873
3153.581, 387.5947
3155.510, 387.8773
3157.438, 383.9973
3159.367, 382.9180
3161.295, 395.6445
3163.224, 405.4264
3165.152, 398.4170
3167.081, 393.8157
3169.009, 398.2311
3170.938, 399.2012
3172.866, 391.3932
3174.794, 391.4951
3176.723, 401.1304
3178.651, 398.4257
3180.580, 387.6223
3182.508, 395.7520
3184.437, 411.9158
3186.365, 407.9724
3188.294, 397.5515
3190.222, 394.3740
3192.151, 396.1502
3194.079, 407.5414
3196.008, 411.9916
3197.936, 398.1776
3199.865, 394.1500
3201.793, 411.6361
3203.721, 420.7305
3205.650, 418.3626
3207.578, 413.3471
3209.507, 406.8831
3211.435, 404.2246
3213.364, 405.8239
3215.292, 417.8142
3217.221, 429.3353
3219.149, 425.6238
3221.078, 417.6592
3223.006, 407.1936
3224.935, 405.8737
3226.863, 422.2392
3228.792, 432.3922
3230.720, 430.3261
3232.648, 423.3929
3234.577, 411.3415
3236.505, 408.1385
3238.434, 412.1990
3240.362, 417.4743
3242.291, 421.8314
3244.219, 419.1050
3246.148, 415.8986
3248.076, 418.8724
3250.005, 422.8828
3251.933, 424.7546
3253.862, 427.8878
3255.790, 434.0283
3257.719, 436.4821
3259.647, 433.3388
3261.575, 430.2284
3263.504, 427.6305
3265.432, 433.3508
3267.361, 442.3653
3269.289, 441.6747
3271.218, 438.8680
3273.146, 443.4683
3275.075, 449.6874
3277.003, 460.8799
3278.932, 459.9065
3280.860, 428.9735
3282.789, 419.9379
3284.717, 439.1531
3286.646, 448.8470
3288.574, 447.7309
3290.502, 451.9878
3292.431, 457.3151
3294.359, 450.1620
3296.288, 441.0213
3298.216, 440.1352
3300.145, 444.5297
3302.073, 457.2640
3304.002, 462.2904
3305.930, 446.8312
3307.859, 440.0303
3309.787, 443.4565
3311.716, 453.2966
3313.644, 466.5378
3315.573, 467.3571
3317.501, 461.7911
3319.429, 459.3013
3321.358, 460.2831
3323.286, 466.6869
3325.215, 474.2536
3327.143, 484.0047
3329.072, 485.9522
3331.000, 476.3694
3332.929, 469.8919
3334.857, 467.4366
3336.786, 470.3996
3338.714, 476.1143
3340.643, 476.1211
3342.571, 475.9333
3344.500, 487.3707
3346.428, 493.4771
3348.356, 479.7506
3350.285, 470.4034
3352.213, 473.6141
3354.142, 478.1049
3356.070, 483.2853
3357.999, 489.6745
3359.927, 495.7952
3361.856, 493.7871
3363.784, 489.2756
3365.713, 489.3063
3367.641, 491.2715
3369.570, 493.6412
3371.498, 497.5121
3373.427, 504.4674
3375.355, 505.8636
3377.283, 499.0573
3379.212, 499.8766
3381.140, 506.3170
3383.069, 512.1227
3384.997, 516.1426
3386.926, 516.9045
3388.854, 514.6796
3390.783, 506.6078
3392.711, 503.0207
3394.640, 510.2888
3396.568, 516.7602
3398.497, 521.8807
3400.425, 515.7101
3402.354, 504.1018
3404.282, 511.7981
3406.210, 522.6177
3408.139, 511.9378
3410.067, 504.3790
3411.996, 521.6339
3413.924, 531.2042
3415.853, 525.9594
3417.781, 523.1431
3419.710, 524.3392
3421.638, 529.2490
3423.567, 536.0844
3425.495, 543.1372
3427.424, 546.4177
3429.352, 535.2162
3431.281, 531.1865
3433.209, 548.0940
3435.137, 554.7715
3437.066, 543.4282
3438.994, 540.2993
3440.923, 544.5300
3442.851, 553.1923
3444.780, 559.2817
3446.708, 544.3762
3448.637, 532.8118
3450.565, 542.3177
3452.494, 554.4772
3454.422, 567.1638
3456.351, 569.6014
3458.279, 561.7200
3460.208, 559.9404
3462.136, 561.8167
3464.064, 562.3614
3465.993, 560.9344
3467.921, 552.3863
3469.850, 551.0817
3471.778, 564.1423
3473.707, 570.0128
3475.635, 564.1873
3477.564, 564.3989
3479.492, 568.9171
3481.421, 574.1863
3483.349, 576.4487
3485.278, 565.4052
3487.206, 560.7678
3489.135, 572.7844
3491.063, 583.9009
3492.991, 592.1165
3494.920, 589.0036
3496.848, 579.3967
3498.777, 583.1973
3500.705, 591.0154
3502.634, 590.8068
3504.562, 588.1691
3506.491, 583.2172
3508.419, 582.7108
3510.348, 587.8773
3512.276, 591.5486
3514.205, 594.1547
3516.133, 600.8616
3518.062, 606.7908
3519.990, 603.6369
3521.918, 600.0906
3523.847, 599.9320
3525.775, 602.7621
3527.704, 608.6909
3529.632, 612.6935
3531.561, 615.3563
3533.489, 622.6034
3535.418, 628.3690
3537.346, 622.8400
3539.275, 618.8323
3541.203, 624.2424
3543.132, 625.8734
3545.060, 621.3179
3546.989, 623.4716
3548.917, 630.5186
3550.845, 632.8340
3552.774, 637.0568
3554.702, 658.2097
3556.631, 666.4738
3558.559, 646.6090
3560.488, 642.3438
3562.416, 661.0732
3564.345, 661.7762
3566.273, 653.8904
3568.202, 660.5734
3570.130, 668.1749
3572.059, 664.6330
3573.987, 659.1996
3575.916, 651.8396
3577.844, 654.7833
3579.772, 666.8222
3581.701, 673.0373
3583.629, 676.2834
3585.558, 684.0362
3587.486, 685.2676
3589.415, 669.3796
3591.343, 662.0670
3593.272, 669.4597
3595.200, 676.7646
3597.129, 683.3304
3599.057, 688.4906
3600.986, 691.9258
3602.914, 691.9301
3604.843, 693.0739
3606.771, 697.7730
3608.699, 701.8281
3610.628, 705.6061
3612.556, 717.8199
3614.485, 730.4794
3616.413, 726.4646
3618.342, 719.3276
3620.270, 715.1428
3622.199, 714.0635
3624.127, 715.8609
3626.056, 721.7333
3627.984, 729.1879
3629.913, 729.2301
3631.841, 727.8186
3633.770, 729.4966
3635.698, 733.4812
3637.626, 740.3707
3639.555, 746.3763
3641.483, 750.7169
3643.412, 748.0870
3645.340, 744.9415
3647.269, 750.6940
3649.197, 759.2250
3651.126, 771.8079
3653.054, 774.5979
3654.983, 767.1788
3656.911, 764.5734
3658.840, 766.1245
3660.768, 769.9225
3662.697, 776.6794
3664.625, 792.4188
3666.553, 797.5652
3668.482, 789.3232
3670.410, 789.4435
3672.339, 796.7808
3674.267, 809.9357
3676.196, 820.6736
3678.124, 819.6248
3680.053, 820.7571
3681.981, 827.3212
3683.910, 828.9803
3685.838, 827.9852
3687.767, 842.0901
3689.695, 853.1138
3691.624, 837.6020
3693.552, 825.9594
3695.480, 825.1548
3697.409, 841.1183
3699.337, 867.7313
3701.266, 865.0157
3703.194, 855.5764
3705.123, 864.1847
3707.051, 874.8414
3708.980, 883.9177
3710.908, 881.8348
3712.837, 871.4463
3714.765, 880.1995
3716.694, 894.2884
3718.622, 896.3794
3720.551, 899.9870
3722.479, 912.2723
3724.407, 913.2403
3726.336, 903.6050
3728.264, 900.0157
3730.193, 900.7741
3732.121, 903.9100
3734.050, 909.9135
3735.978, 920.8162
3737.907, 924.5914
3739.835, 922.1020
3741.764, 925.5569
3743.692, 931.1378
3745.621, 933.3674
3747.549, 938.5257
3749.478, 950.6185
3751.406, 954.9834
3753.334, 952.5236
3755.263, 950.6631
3757.191, 952.8450
3759.120, 968.6000
3761.048, 973.5274
3762.977, 956.6331
3764.905, 960.5884
3766.834, 979.2632
3768.762, 979.4536
3770.691, 976.9201
3772.619, 984.9503
3774.548, 994.9487
3776.476, 1006.646
3778.405, 993.6358
3780.333, 970.4374
3782.261, 985.1199
3784.190, 1000.326
3786.118, 982.4390
3788.047, 986.9518
3789.975, 1021.637
3791.904, 1039.255
3793.832, 1044.132
3795.761, 1042.751
3797.689, 1040.088
3799.618, 1038.689
3801.546, 1034.911
3803.475, 1029.545
3805.403, 1041.230
3807.332, 1055.564
3809.260, 1049.278
3811.188, 1046.584
3813.117, 1057.249
3815.045, 1066.752
3816.974, 1074.269
3818.902, 1078.751
3820.831, 1081.947
3822.759, 1081.584
3824.688, 1091.852
3826.616, 1121.221
3828.545, 1115.443
3830.473, 1093.737
3832.402, 1100.653
3834.330, 1107.717
3836.259, 1096.519
3838.187, 1099.238
3840.115, 1118.622
3842.044, 1126.283
3843.972, 1130.497
3845.901, 1145.105
3847.829, 1150.503
3849.758, 1139.548
3851.686, 1147.823
3853.615, 1168.680
3855.543, 1174.491
3857.472, 1172.085
3859.400, 1157.293
3861.329, 1159.873
3863.257, 1181.773
3865.186, 1195.162
3867.114, 1203.107
3869.042, 1210.930
3870.971, 1218.980
3872.899, 1230.865
3874.828, 1221.676
3876.756, 1200.334
3878.685, 1211.732
3880.613, 1232.756
3882.542, 1244.703
3884.470, 1261.903
3886.399, 1286.075
3888.327, 1291.343
3890.256, 1287.549
3892.184, 1280.892
3894.113, 1284.003
3896.041, 1308.441
3897.969, 1319.894
3899.898, 1325.151
3901.826, 1342.459
3903.755, 1356.835
3905.683, 1361.555
3907.612, 1373.810
3909.540, 1393.730
3911.469, 1384.069
3913.397, 1374.749
3915.326, 1391.731
3917.254, 1409.664
3919.183, 1427.910
3921.111, 1422.495
3923.040, 1407.219
3924.968, 1414.873
3926.896, 1434.526
3928.825, 1465.634
3930.753, 1477.071
3932.682, 1473.552
3934.610, 1473.617
3936.539, 1470.101
3938.467, 1463.044
3940.396, 1468.726
3942.324, 1483.752
3944.253, 1497.025
3946.181, 1502.383
3948.110, 1508.210
3950.038, 1515.314
3951.967, 1515.442
3953.895, 1531.502
3955.823, 1543.323
3957.752, 1531.230
3959.680, 1544.795
3961.609, 1587.790
3963.537, 1583.321
3965.466, 1552.503
3967.394, 1554.197
3969.323, 1568.470
3971.251, 1587.387
3973.180, 1591.757
3975.108, 1589.350
3977.037, 1608.694
3978.965, 1620.770
3980.894, 1609.519
3982.822, 1602.133
3984.750, 1609.751
3986.679, 1640.434
3988.607, 1652.418
3990.536, 1654.528
3992.464, 1666.255
3994.393, 1656.498
3996.321, 1648.505
3998.250, 1656.418
4000.178, 1677.581
4002.107, 1688.118
4004.035, 1694.359
4005.964, 1695.527
4007.892, 1693.649
4009.821, 1705.800
4011.749, 1723.214
4013.677, 1732.565
4015.606, 1729.096
4017.534, 1727.034
4019.463, 1740.539
4021.391, 1755.429
4023.320, 1762.756
4025.248, 1790.704
4027.177, 1825.631
4029.105, 1835.596
4031.034, 1842.816
4032.962, 1866.118
4034.891, 1867.664
4036.819, 1855.289
4038.748, 1880.255
4040.676, 1918.207
4042.604, 1940.957
4044.533, 1955.894
4046.461, 1978.179
4048.390, 2005.122
4050.318, 2027.188
4052.247, 2057.723
4054.175, 2095.281
4056.104, 2131.410
4058.032, 2150.827
4059.961, 2171.844
4061.889, 2219.771
4063.818, 2254.689
4065.746, 2276.253
4067.675, 2305.750
4069.603, 2344.960
4071.531, 2392.338
4073.460, 2416.644
4075.388, 2437.812
4077.317, 2493.697
4079.245, 2549.060
4081.174, 2588.051
4083.102, 2602.656
4085.031, 2607.550
4086.959, 2651.304
4088.888, 2695.001
4090.816, 2730.435
4092.745, 2752.802
4094.673, 2761.261
4096.602, 2782.422
4098.530, 2803.751
4100.458, 2821.832
4102.387, 2819.597
4104.315, 2801.234
4106.244, 2810.158
4108.172, 2828.239
4110.101, 2847.741
4112.029, 2841.561
4113.958, 2815.945
4115.886, 2832.230
4117.814, 2848.003
4119.743, 2821.047
4121.671, 2808.984
4123.600, 2814.963
4125.528, 2814.286
4127.457, 2814.723
4129.385, 2829.928
4131.314, 2830.028
4133.242, 2813.334
4135.171, 2781.714
4137.099, 2753.785
4139.028, 2737.757
4140.956, 2750.810
4142.885, 2785.721
4144.813, 2794.728
4146.742, 2789.639
4148.670, 2775.668
4150.599, 2783.830
4152.527, 2810.673
4154.456, 2808.359
4156.384, 2795.543
4158.313, 2778.493
4160.241, 2783.877
4162.169, 2809.825
4164.098, 2790.669
4166.026, 2764.809
4167.955, 2763.171
4169.883, 2769.253
4171.812, 2783.001
4173.740, 2800.915
4175.668, 2811.072
4177.597, 2799.538
4179.525, 2799.084
4181.454, 2807.882
4183.382, 2820.708
4185.311, 2832.474
4187.239, 2830.881
4189.168, 2822.765
4191.096, 2816.796
4193.025, 2822.820
4194.953, 2836.125
4196.882, 2858.653
4198.810, 2863.979
4200.739, 2859.080
4202.667, 2849.302
4204.596, 2850.062
4206.524, 2872.147
4208.453, 2878.091
4210.381, 2872.066
4212.310, 2870.545
4214.238, 2879.716
4216.167, 2896.306
4218.095, 2910.946
4220.023, 2930.306
4221.952, 2970.913
4223.880, 2991.741
4225.809, 2984.287
4227.737, 2956.778
4229.666, 2942.497
4231.594, 2999.612
4233.522, 3037.816
4235.451, 3041.682
4237.379, 3025.449
4239.308, 3011.547
4241.236, 3019.083
4243.165, 3043.176
4245.093, 3078.886
4247.022, 3099.055
4248.950, 3112.386
4250.879, 3122.878
4252.807, 3141.845
4254.736, 3162.875
4256.664, 3137.467
4258.593, 3141.993
4260.521, 3220.285
4262.450, 3260.276
4264.378, 3271.423
4266.307, 3288.893
4268.235, 3289.350
4270.164, 3264.130
4272.092, 3269.441
4274.021, 3294.536
4275.949, 3334.075
4277.877, 3354.321
4279.806, 3350.872
4281.734, 3372.077
4283.663, 3386.909
4285.591, 3358.391
4287.520, 3379.214
4289.448, 3441.853
4291.376, 3460.555
4293.305, 3472.187
4295.233, 3495.556
4297.162, 3503.111
4299.090, 3504.156
4301.019, 3525.292
4302.947, 3539.989
4304.876, 3541.312
4306.804, 3561.910
4308.733, 3578.956
4310.661, 3557.145
4312.590, 3557.674
4314.518, 3582.776
4316.447, 3578.739
4318.375, 3579.188
4320.304, 3606.825
4322.232, 3630.589
4324.161, 3644.695
4326.089, 3638.599
4328.018, 3628.906
4329.946, 3621.076
4331.875, 3643.100
4333.803, 3669.531
4335.731, 3662.928
4337.660, 3666.666
4339.588, 3682.915
4341.517, 3677.928
4343.445, 3683.749
4345.374, 3724.952
4347.302, 3759.787
4349.230, 3776.135
4351.159, 3736.402
4353.087, 3733.472
4355.016, 3797.208
4356.944, 3770.502
4358.873, 3729.716
4360.801, 3769.186
4362.730, 3801.838
4364.658, 3815.707
4366.587, 3805.477
4368.515, 3792.552
4370.444, 3784.337
4372.372, 3800.980
4374.301, 3832.587
4376.229, 3871.013
4378.158, 3891.263
4380.086, 3889.219
4382.015, 3895.461
4383.943, 3903.734
4385.872, 3909.076
4387.800, 3919.734
4389.729, 3933.140
4391.657, 3941.799
4393.585, 3950.994
4395.514, 3961.819
4397.442, 3948.206
4399.371, 3938.895
4401.299, 3963.283
4403.228, 3981.560
4405.156, 3990.861
4407.084, 3989.167
4409.013, 4003.687
4410.941, 4043.203
4412.870, 4075.452
4414.798, 4085.526
4416.727, 4037.315
4418.655, 4037.219
4420.584, 4083.972
4422.512, 4133.655
4424.441, 4156.503
4426.369, 4126.772
4428.298, 4132.598
4430.226, 4144.247
4432.155, 4111.598
4434.083, 4117.806
4436.012, 4161.645
4437.940, 4188.019
4439.869, 4205.005
4441.797, 4215.255
4443.726, 4239.249
4445.654, 4254.974
4447.583, 4220.578
4449.511, 4239.587
4451.439, 4300.184
4453.368, 4306.126
4455.296, 4308.941
4457.225, 4329.993
4459.153, 4341.084
4461.082, 4347.603
4463.010, 4351.751
4464.938, 4370.248
4466.867, 4401.944
4468.795, 4443.721
4470.724, 4474.438
4472.652, 4485.279
4474.581, 4509.528
4476.509, 4528.060
4478.438, 4521.095
4480.366, 4517.684
4482.295, 4521.283
4484.223, 4530.422
4486.152, 4551.617
4488.080, 4585.281
4490.009, 4643.932
4491.937, 4671.510
4493.866, 4603.742
4495.794, 4605.146
4497.723, 4646.920
4499.651, 4673.764
4501.580, 4687.884
4503.508, 4692.745
4505.437, 4714.301
4507.365, 4732.556
4509.293, 4738.529
4511.222, 4727.475
4513.150, 4716.692
4515.079, 4723.121
4517.007, 4743.434
4518.936, 4772.278
4520.864, 4807.697
4522.792, 4818.324
4524.721, 4796.220
4526.649, 4787.312
4528.578, 4797.144
4530.506, 4839.361
4532.435, 4844.204
4534.363, 4839.006
4536.292, 4879.422
4538.220, 4887.652
4540.149, 4869.542
4542.077, 4925.521
4544.006, 4946.312
4545.934, 4898.018
4547.863, 4920.051
4549.791, 4946.457
4551.720, 4904.897
4553.648, 4870.492
4555.577, 4864.708
4557.505, 4949.169
4559.434, 4983.237
4561.362, 4959.821
4563.291, 4982.085
4565.219, 5013.317
4567.147, 5038.911
4569.076, 5030.577
4571.004, 5021.789
4572.933, 5041.264
4574.861, 5078.310
4576.790, 5114.082
4578.718, 5121.619
4580.646, 5085.209
4582.575, 5026.508
4584.503, 5081.612
4586.432, 5128.187
4588.360, 5128.047
4590.289, 5116.433
4592.217, 5111.159
4594.146, 5123.825
4596.074, 5146.350
4598.003, 5167.922
4599.931, 5174.308
4601.860, 5170.977
4603.788, 5165.012
4605.717, 5176.967
4607.645, 5186.355
4609.574, 5191.430
4611.502, 5237.067
4613.431, 5254.444
4615.359, 5201.770
4617.288, 5215.894
4619.216, 5266.505
4621.145, 5338.461
4623.073, 5362.045
4625.001, 5343.509
4626.930, 5288.093
4628.858, 5234.288
4630.787, 5202.206
4632.715, 5248.867
4634.644, 5300.062
4636.572, 5332.080
4638.500, 5349.809
4640.429, 5364.522
4642.357, 5385.106
4644.286, 5353.931
4646.214, 5325.259
4648.143, 5347.599
4650.071, 5388.777
4652.000, 5426.495
4653.928, 5431.285
4655.857, 5428.647
4657.785, 5424.479
4659.714, 5422.303
4661.642, 5431.296
4663.571, 5447.768
4665.499, 5417.863
4667.428, 5403.005
4669.356, 5426.444
4671.285, 5432.868
4673.213, 5449.300
4675.142, 5506.266
4677.070, 5524.026
4678.999, 5528.213
4680.927, 5549.357
4682.855, 5554.159
4684.784, 5553.763
4686.712, 5575.466
4688.641, 5597.347
4690.569, 5611.285
4692.498, 5592.504
4694.426, 5587.620
4696.354, 5604.566
4698.283, 5628.436
4700.211, 5636.188
4702.140, 5623.374
4704.068, 5642.235
4705.997, 5663.509
4707.925, 5668.958
4709.854, 5659.483
4711.782, 5651.789
4713.711, 5657.819
4715.639, 5697.244
4717.568, 5728.328
4719.496, 5687.489
4721.425, 5658.738
4723.353, 5657.260
4725.282, 5715.181
4727.210, 5718.683
4729.139, 5680.890
4731.067, 5683.689
4732.996, 5714.650
4734.924, 5760.494
4736.853, 5774.442
4738.781, 5775.453
4740.709, 5770.589
4742.638, 5767.416
4744.566, 5765.649
4746.495, 5766.663
4748.423, 5808.391
4750.352, 5863.841
4752.280, 5925.814
4754.208, 5882.903
4756.137, 5846.022
4758.065, 5903.216
4759.994, 5926.401
4761.922, 5915.823
4763.851, 5856.887
4765.779, 5893.009
4767.708, 5954.175
4769.636, 5926.741
4771.565, 5916.858
4773.493, 5932.520
4775.422, 5979.726
4777.350, 5989.141
4779.279, 5965.510
4781.207, 5929.503
4783.136, 5940.540
4785.064, 5987.305
4786.993, 5998.636
4788.921, 6017.423
4790.850, 6046.075
4792.778, 6047.539
4794.707, 6040.524
4796.635, 6033.178
4798.563, 6034.619
4800.492, 6077.306
4802.420, 6162.831
4804.349, 6169.777
4806.277, 6144.332
4808.206, 6107.139
4810.134, 6079.350
4812.063, 6093.251
4813.991, 6161.026
4815.919, 6190.131
4817.848, 6202.903
4819.776, 6213.546
4821.705, 6194.901
4823.633, 6171.874
4825.562, 6158.285
4827.490, 6199.451
4829.419, 6236.228
4831.347, 6220.994
4833.276, 6227.485
4835.204, 6241.964
4837.133, 6250.825
4839.061, 6270.606
4840.990, 6298.343
4842.918, 6335.843
4844.847, 6330.750
4846.775, 6308.555
4848.704, 6293.146
4850.632, 6277.156
4852.561, 6274.057
4854.489, 6299.502
4856.417, 6353.498
4858.346, 6380.458
4860.274, 6294.455
4862.203, 6354.132
4864.131, 6441.375
4866.060, 6393.016
4867.988, 6390.031
4869.917, 6403.458
4871.845, 6378.336
4873.773, 6371.130
4875.702, 6402.365
4877.630, 6509.663
4879.559, 6507.050
4881.487, 6453.815
4883.416, 6412.674
4885.344, 6474.480
4887.273, 6550.924
4889.201, 6534.547
4891.130, 6502.165
4893.058, 6485.184
4894.987, 6526.904
4896.915, 6495.906
4898.844, 6468.511
4900.772, 6538.395
4902.701, 6564.329
4904.629, 6566.857
4906.558, 6580.042
4908.486, 6584.860
4910.415, 6596.103
4912.343, 6631.784
4914.271, 6603.957
4916.200, 6574.644
4918.128, 6614.897
4920.057, 6631.391
4921.985, 6620.672
4923.914, 6577.117
4925.842, 6638.199
4927.771, 6702.814
4929.699, 6689.639
4931.627, 6681.339
4933.556, 6685.256
4935.484, 6704.684
4937.413, 6713.920
4939.341, 6722.748
4941.270, 6735.561
4943.198, 6703.834
4945.127, 6701.235
4947.055, 6764.700
4948.984, 6753.618
4950.912, 6739.457
4952.841, 6750.817
4954.769, 6797.424
4956.698, 6809.379
4958.626, 6773.317
4960.555, 6803.572
4962.483, 6840.478
4964.412, 6858.285
4966.340, 6807.480
4968.269, 6792.925
4970.197, 6822.736
4972.125, 6844.137
4974.054, 6830.493
4975.982, 6806.103
4977.911, 6855.349
4979.839, 6877.146
4981.768, 6871.678
4983.696, 6866.047
4985.625, 6847.222
4987.553, 6837.814
4989.481, 6873.454
4991.410, 6932.524
4993.338, 6955.548
4995.267, 6852.687
4997.195, 6861.530
4999.124, 6896.954
5001.052, 6881.103
5002.981, 6906.422
5004.909, 6949.808
5006.838, 6992.490
5008.766, 6981.473
5010.695, 6977.254
5012.623, 7007.461
5014.552, 6995.783
5016.480, 6963.777
5018.409, 6933.485
5020.337, 6982.657
5022.266, 7034.472
5024.194, 7058.266
5026.123, 7001.888
5028.051, 6961.443
5029.979, 6962.462
5031.908, 7035.861
5033.836, 7064.184
5035.765, 7049.598
5037.693, 6994.867
5039.622, 7035.717
5041.550, 7079.446
5043.479, 7026.882
5045.407, 7052.936
5047.335, 7072.327
5049.264, 7020.539
5051.192, 7111.728
5053.121, 7171.051
5055.049, 7124.597
5056.978, 7111.373
5058.906, 7115.050
5060.835, 7129.661
5062.763, 7153.857
5064.692, 7175.891
5066.620, 7197.000
5068.549, 7243.406
5070.477, 7209.385
5072.406, 7151.057
5074.334, 7164.874
5076.263, 7172.676
5078.191, 7182.283
5080.120, 7214.377
5082.048, 7194.355
5083.977, 7201.991
5085.905, 7268.929
5087.833, 7242.267
5089.762, 7239.997
5091.690, 7286.030
5093.619, 7294.647
5095.547, 7278.374
5097.476, 7252.953
5099.404, 7241.947
5101.333, 7266.083
5103.261, 7306.140
5105.189, 7340.442
5107.118, 7310.143
5109.046, 7281.050
5110.975, 7313.373
5112.903, 7333.271
5114.832, 7303.418
5116.760, 7232.220
5118.689, 7295.887
5120.617, 7348.829
5122.546, 7359.948
5124.474, 7363.173
5126.403, 7356.961
5128.331, 7363.065
5130.260, 7422.398
5132.188, 7417.003
5134.117, 7390.837
5136.045, 7390.209
5137.974, 7416.159
5139.902, 7430.604
5141.831, 7418.655
5143.759, 7414.945
5145.688, 7415.823
5147.616, 7425.147
5149.544, 7468.583
5151.473, 7462.795
5153.401, 7446.083
5155.330, 7502.030
5157.258, 7493.313
5159.187, 7458.729
5161.115, 7432.146
5163.043, 7441.092
5164.972, 7471.141
5166.900, 7507.852
5168.829, 7509.337
5170.757, 7514.900
5172.686, 7518.671
5174.614, 7484.695
5176.543, 7482.488
5178.471, 7526.439
5180.400, 7623.579
5182.328, 7620.577
5184.257, 7570.324
5186.185, 7515.171
5188.114, 7596.286
5190.042, 7630.686
5191.971, 7603.045
5193.899, 7583.692
5195.828, 7559.641
5197.756, 7550.123
5199.685, 7585.301
5201.613, 7570.140
5203.542, 7552.137
5205.470, 7554.214
5207.398, 7535.280
5209.327, 7558.214
5211.255, 7604.494
5213.184, 7590.078
5215.112, 7599.275
5217.041, 7608.609
5218.969, 7578.999
5220.897, 7566.678
5222.826, 7567.975
5224.754, 7576.311
5226.683, 7563.860
5228.611, 7556.021
5230.540, 7557.479
5232.468, 7560.950
5234.397, 7596.001
5236.325, 7630.280
5238.254, 7635.108
5240.182, 7615.104
5242.111, 7610.474
5244.039, 7628.742
5245.968, 7650.448
5247.896, 7624.255
5249.825, 7582.262
5251.753, 7591.272
5253.682, 7546.580
5255.610, 7550.804
5257.539, 7649.998
5259.467, 7674.053
5261.396, 7652.738
5263.324, 7619.991
5265.252, 7633.213
5267.181, 7652.815
5269.109, 7657.971
5271.038, 7632.308
5272.966, 7619.642
5274.895, 7619.328
5276.823, 7626.000
5278.751, 7625.166
5280.680, 7617.815
5282.608, 7615.557
5284.537, 7640.878
5286.465, 7622.462
5288.394, 7639.502
5290.322, 7709.135
5292.251, 7647.207
5294.179, 7592.339
5296.108, 7580.150
5298.036, 7624.629
5299.965, 7684.970
5301.893, 7695.746
5303.822, 7622.863
5305.750, 7559.919
5307.679, 7593.657
5309.607, 7672.709
5311.536, 7648.783
5313.464, 7629.401
5315.393, 7613.382
5317.321, 7593.844
5319.250, 7645.711
5321.178, 7660.377
5323.106, 7628.917
5325.035, 7593.542
5326.963, 7669.297
5328.892, 7731.674
5330.820, 7685.092
5332.749, 7655.714
5334.677, 7613.646
5336.605, 7572.863
5338.534, 7607.596
5340.462, 7598.978
5342.391, 7608.804
5344.319, 7687.444
5346.248, 7634.334
5348.176, 7567.598
5350.105, 7546.956
5352.033, 7643.572
5353.962, 7658.038
5355.890, 7644.271
5357.819, 7654.661
5359.747, 7666.913
5361.676, 7667.972
5363.604, 7654.272
5365.533, 7624.937
5367.461, 7585.906
5369.390, 7585.692
5371.318, 7639.122
5373.247, 7627.873
5375.175, 7656.298
5377.104, 7689.337
5379.032, 7610.333
5380.960, 7602.558
5382.889, 7620.799
5384.817, 7631.608
5386.746, 7586.926
5388.674, 7620.437
5390.603, 7672.391
5392.531, 7649.017
5394.459, 7623.751
5396.388, 7597.842
5398.316, 7577.561
5400.245, 7582.734
5402.173, 7643.533
5404.102, 7659.309
5406.030, 7562.528
5407.959, 7555.622
5409.887, 7580.554
5411.816, 7603.308
5413.744, 7592.174
5415.673, 7592.254
5417.601, 7603.433
5419.530, 7615.528
5421.458, 7548.617
5423.387, 7539.144
5425.315, 7547.183
5427.244, 7502.710
5429.172, 7567.255
5431.101, 7581.709
5433.029, 7535.996
5434.958, 7570.083
5436.886, 7629.809
5438.814, 7643.544
5440.743, 7578.596
5442.671, 7570.104
5444.600, 7516.114
5446.528, 7481.717
5448.457, 7576.118
5450.385, 7562.580
5452.313, 7544.241
5454.242, 7552.823
5456.170, 7538.140
5458.099, 7519.410
5460.027, 7504.233
5461.956, 7498.660
5463.884, 7541.056
5465.813, 7553.841
5467.741, 7540.563
5469.670, 7526.454
5471.598, 7527.344
5473.527, 7524.652
5475.455, 7511.852
5477.384, 7490.359
5479.312, 7457.120
5481.241, 7453.885
5483.169, 7496.235
5485.098, 7540.108
5487.026, 7490.460
5488.955, 7441.718
5490.883, 7491.109
5492.812, 7441.469
5494.740, 7423.739
5496.668, 7442.025
5498.597, 7438.785
5500.525, 7418.346
5502.454, 7394.366
5504.382, 7380.208
5506.311, 7412.153
5508.239, 7403.096
5510.167, 7385.148
5512.096, 7387.535
5514.024, 7429.463
5515.953, 7393.957
5517.881, 7366.925
5519.810, 7441.656
5521.738, 7381.528
5523.667, 7396.068
5525.595, 7455.507
5527.524, 7398.069
5529.452, 7395.815
5531.381, 7363.667
5533.309, 7311.146
5535.238, 7351.734
5537.166, 7377.892
5539.095, 7350.240
5541.023, 7285.531
5542.952, 7306.917
5544.880, 7322.112
5546.809, 7323.891
5548.737, 7315.255
5550.666, 7275.993
5552.594, 7320.429
5554.522, 7369.406
5556.451, 7321.189
5558.379, 7304.742
5560.308, 7296.367
5562.236, 7286.796
5564.165, 7273.295
5566.093, 7288.524
5568.021, 7296.531
5569.950, 7297.404
5571.878, 7319.716
5573.807, 7271.754
5575.735, 7257.790
5577.664, 7286.302
5579.592, 7262.063
5581.521, 7208.950
5583.449, 7182.314
5585.378, 7187.966
5587.306, 7159.314
5589.235, 7196.078
5591.163, 7209.349
5593.092, 7161.419
5595.020, 7123.976
5596.949, 7211.414
5598.877, 7265.378
5600.806, 7190.476
5602.734, 7145.193
5604.663, 7177.830
5606.591, 7197.165
5608.520, 7137.474
5610.448, 7115.348
5612.376, 7140.794
5614.305, 7156.540
5616.233, 7120.552
5618.162, 7129.821
5620.090, 7089.968
5622.019, 7068.975
5623.947, 7134.965
5625.875, 7100.509
5627.804, 7092.954
5629.732, 7119.365
5631.661, 7158.645
5633.589, 7082.161
5635.518, 7018.438
5637.446, 7004.628
5639.375, 7042.825
5641.303, 7035.587
5643.232, 7029.713
5645.160, 7023.703
5647.089, 7002.256
5649.017, 6950.131
5650.946, 6922.173
5652.874, 6924.056
5654.803, 6946.513
5656.731, 7001.083
5658.660, 6976.400
5660.588, 6925.066
5662.517, 6936.266
5664.445, 6913.898
5666.374, 6939.595
5668.302, 6954.347
5670.230, 6885.028
5672.159, 6909.483
5674.087, 6911.295
5676.016, 6901.218
5677.944, 6912.714
5679.873, 6927.686
5681.801, 6944.307
5683.729, 6926.168
5685.658, 6853.355
5687.586, 6800.270
5689.515, 6803.516
5691.443, 6830.268
5693.372, 6846.260
5695.300, 6789.142
5697.229, 6838.405
5699.157, 6877.831
5701.086, 6829.183
5703.014, 6789.580
5704.943, 6768.735
5706.871, 6738.184
5708.800, 6698.594
5710.728, 6705.902
5712.657, 6761.591
5714.585, 6757.047
5716.514, 6695.235
5718.442, 6728.122
5720.371, 6723.369
5722.299, 6715.613
5724.228, 6710.944
5726.156, 6670.196
5728.084, 6723.147
5730.013, 6754.847
5731.941, 6729.750
5733.870, 6653.011
5735.798, 6615.492
5737.727, 6654.171
5739.655, 6689.432
5741.583, 6638.679
5743.512, 6621.725
5745.440, 6590.567
5747.369, 6571.204
5749.297, 6582.370
5751.226, 6570.207
5753.154, 6566.157
5755.083, 6559.869
5757.011, 6545.943
5758.940, 6544.933
5760.868, 6474.625
5762.797, 6496.607
5764.725, 6578.161
5766.654, 6447.086
5768.582, 6514.906
5770.511, 6544.576
5772.439, 6503.166
5774.368, 6460.013
5776.296, 6492.072
5778.225, 6484.827
5780.153, 6455.250
5782.082, 6440.179
5784.010, 6425.546
5785.938, 6365.089
5787.867, 6355.896
5789.795, 6410.447
5791.724, 6369.498
5793.652, 6376.823
5795.581, 6374.096
5797.509, 6350.123
5799.438, 6339.435
5801.366, 6318.091
5803.294, 6310.876
5805.223, 6325.094
5807.151, 6356.587
5809.080, 6333.181
5811.008, 6299.734
5812.937, 6293.476
5814.865, 6317.667
5816.794, 6321.446
5818.722, 6320.865
5820.651, 6293.977
5822.579, 6247.941
5824.508, 6210.630
5826.436, 6263.672
5828.365, 6280.368
5830.293, 6254.473
5832.222, 6218.366
5834.150, 6209.661
5836.079, 6201.352
5838.007, 6173.306
5839.936, 6135.019
5841.864, 6139.210
5843.792, 6112.769
5845.721, 6093.811
5847.649, 6101.815
5849.578, 6141.503
5851.506, 6100.822
5853.435, 6103.992
5855.363, 6108.488
5857.292, 6079.907
5859.220, 6045.363
5861.148, 6081.694
5863.077, 6098.503
5865.005, 6069.584
5866.934, 6014.101
5868.862, 5999.391
5870.791, 6040.316
5872.719, 6064.180
5874.648, 6032.071
5876.576, 6011.204
5878.505, 6009.425
5880.433, 5998.296
5882.362, 5961.407
5884.290, 5898.593
5886.219, 5873.463
5888.147, 5945.795
5890.076, 5986.694
5892.004, 5931.375
5893.933, 5894.997
5895.861, 5914.551
5897.790, 5901.444
5899.718, 5864.857
5901.646, 5862.348
5903.575, 5833.229
5905.503, 5834.773
5907.432, 5823.324
5909.360, 5794.705
5911.289, 5851.770
5913.217, 5836.800
5915.146, 5777.362
5917.074, 5747.581
5919.002, 5801.500
5920.931, 5799.872
5922.859, 5803.137
5924.788, 5777.612
5926.716, 5737.000
5928.645, 5741.890
5930.573, 5725.340
5932.502, 5703.942
5934.430, 5670.157
5936.359, 5638.432
5938.287, 5690.877
5940.216, 5689.746
5942.144, 5656.071
5944.073, 5626.500
5946.001, 5623.665
5947.930, 5627.760
5949.858, 5636.370
5951.787, 5634.378
5953.715, 5627.652
5955.644, 5638.476
5957.572, 5634.020
5959.500, 5580.388
5961.429, 5546.133
5963.357, 5560.352
5965.286, 5545.337
5967.214, 5574.842
5969.143, 5535.531
5971.071, 5484.447
5973.000, 5497.271
5974.928, 5482.931
5976.856, 5485.161
5978.785, 5468.036
5980.713, 5424.257
5982.642, 5368.204
5984.570, 5376.321
5986.499, 5344.514
5988.427, 5371.763
5990.356, 5433.783
5992.284, 5358.958
5994.213, 5447.265
5996.141, 5392.662
5998.070, 5308.164
5999.998, 5294.501
6001.927, 5331.237
6003.855, 5329.823
6005.784, 5331.056
6007.712, 5328.524
6009.641, 5308.284
6011.569, 5264.625
6013.498, 5294.487
6015.426, 5297.080
6017.354, 5275.541
6019.283, 5250.305
6021.211, 5181.111
6023.140, 5140.243
6025.068, 5170.500
6026.997, 5214.472
6028.925, 5202.853
6030.854, 5120.985
6032.782, 5155.480
6034.710, 5165.011
6036.639, 5143.589
6038.567, 5137.749
6040.496, 5118.115
6042.424, 5116.988
6044.353, 5108.738
6046.281, 5085.731
6048.210, 5059.520
6050.138, 5075.566
6052.067, 5040.627
6053.995, 5016.095
6055.924, 5013.350
6057.852, 5014.483
6059.781, 5016.759
6061.709, 4975.067
6063.638, 4988.741
6065.566, 4998.850
6067.495, 4942.287
6069.423, 4973.875
6071.352, 4964.422
6073.280, 4934.269
6075.208, 4906.253
6077.137, 4891.472
6079.065, 4899.402
6080.994, 4855.018
6082.922, 4840.367
6084.851, 4862.060
6086.779, 4880.880
6088.708, 4829.344
6090.636, 4771.506
6092.564, 4798.474
6094.493, 4835.849
6096.421, 4829.942
6098.350, 4833.631
6100.278, 4763.167
6102.207, 4740.573
6104.135, 4742.511
6106.064, 4738.674
6107.992, 4737.182
6109.921, 4730.784
6111.849, 4746.729
6113.778, 4742.567
6115.706, 4706.231
6117.635, 4665.842
6119.563, 4698.216
6121.492, 4667.763
6123.420, 4628.638
6125.349, 4621.024
6127.277, 4639.680
6129.206, 4617.796
6131.134, 4587.765
6133.063, 4537.171
6134.991, 4529.532
6136.919, 4577.871
6138.848, 4541.651
6140.776, 4525.640
6142.705, 4526.045
6144.633, 4546.389
6146.562, 4553.191
6148.490, 4486.057
6150.418, 4453.032
6152.347, 4471.597
6154.275, 4476.845
6156.204, 4464.890
6158.132, 4466.581
6160.061, 4464.886
6161.989, 4441.043
6163.918, 4447.426
6165.846, 4436.358
6167.775, 4391.173
6169.703, 4407.861
6171.632, 4396.445
6173.560, 4376.289
6175.489, 4348.171
6177.417, 4325.077
6179.346, 4325.411
6181.274, 4322.140
6183.203, 4312.421
6185.131, 4303.044
6187.060, 4274.074
6188.988, 4228.404
6190.917, 4233.038
6192.845, 4271.317
6194.773, 4260.343
6196.702, 4238.723
6198.630, 4224.146
6200.559, 4196.346
6202.487, 4177.795
6204.416, 4176.528
6206.344, 4233.483
6208.272, 4239.751
6210.201, 4160.993
6212.129, 4181.500
6214.058, 4119.310
6215.986, 4090.701
6217.915, 4083.126
6219.843, 4074.094
6221.772, 4066.217
6223.700, 4090.378
6225.629, 4068.017
6227.557, 4054.889
6229.486, 4061.832
6231.414, 4070.001
6233.343, 4056.809
6235.271, 4048.322
6237.200, 4034.287
6239.128, 4007.990
6241.057, 3987.985
6242.985, 3993.149
6244.914, 4027.273
6246.842, 4006.910
6248.771, 4000.049
6250.699, 3987.351
6252.627, 3957.454
6254.556, 3918.877
6256.484, 3884.864
6258.413, 3874.599
6260.341, 3889.822
6262.270, 3879.707
6264.198, 3851.441
6266.126, 3853.241
6268.055, 3879.975
6269.983, 3818.638
6271.912, 3833.780
6273.840, 3827.491
6275.769, 3789.468
6277.697, 3841.251
6279.626, 3840.709
6281.554, 3775.497
6283.483, 3734.638
6285.411, 3743.553
6287.340, 3761.844
6289.268, 3729.883
6291.197, 3688.751
6293.125, 3746.582
6295.054, 3727.615
6296.982, 3687.003
6298.911, 3664.632
6300.839, 3604.656
6302.768, 3680.558
6304.696, 3703.074
6306.625, 3687.581
6308.553, 3646.428
6310.481, 3607.854
6312.410, 3612.507
6314.338, 3586.851
6316.267, 3570.323
6318.195, 3598.536
6320.124, 3607.967
6322.052, 3574.325
6323.980, 3542.738
6325.909, 3567.668
6327.837, 3537.783
6329.766, 3519.109
6331.694, 3517.270
6333.623, 3514.314
6335.551, 3499.272
6337.480, 3473.240
6339.408, 3481.610
6341.337, 3479.261
6343.265, 3484.611
6345.194, 3470.448
6347.122, 3413.284
6349.051, 3415.413
6350.979, 3397.281
6352.908, 3406.801
6354.836, 3380.793
6356.765, 3360.129
6358.693, 3391.402
6360.622, 3419.331
6362.550, 3356.494
6364.479, 3277.704
6366.407, 3299.059
6368.335, 3328.178
6370.264, 3304.745
6372.192, 3284.047
6374.121, 3278.397
6376.049, 3301.536
6377.978, 3327.945
6379.906, 3258.870
6381.834, 3212.889
6383.763, 3303.800
6385.691, 3242.434
6387.620, 3240.855
6389.548, 3202.483
6391.477, 3187.727
6393.405, 3184.429
6395.334, 3175.573
6397.262, 3190.025
6399.191, 3206.919
6401.119, 3158.126
6403.048, 3158.966
6404.976, 3154.043
6406.905, 3130.346
6408.833, 3124.041
6410.762, 3131.378
6412.690, 3115.004
6414.619, 3110.894
6416.547, 3083.806
6418.476, 3041.504
6420.404, 3042.727
6422.333, 3115.906
6424.261, 3085.907
6426.189, 3052.807
6428.118, 3049.884
6430.046, 2997.116
6431.975, 2996.052
6433.903, 3067.460
6435.832, 3020.464
6437.760, 2947.614
6439.688, 2977.960
6441.617, 2975.594
6443.545, 2986.861
6445.474, 2987.088
6447.402, 2944.156
6449.331, 2930.590
6451.259, 2922.754
6453.188, 2949.784
6455.116, 2926.699
6457.045, 2898.304
6458.973, 2908.385
6460.902, 2920.370
6462.830, 2842.463
6464.759, 2858.904
6466.687, 2886.133
6468.616, 2870.162
6470.544, 2837.357
6472.473, 2838.361
6474.401, 2871.975
6476.330, 2838.008
6478.258, 2828.351
6480.187, 2826.332
6482.115, 2814.862
6484.043, 2779.146
6485.972, 2749.014
6487.900, 2753.311
6489.829, 2770.925
6491.757, 2765.951
6493.686, 2737.970
6495.614, 2760.665
6497.542, 2749.615
6499.471, 2717.047
6501.399, 2707.273
6503.328, 2696.043
6505.256, 2656.146
6507.185, 2672.539
6509.113, 2654.339
6511.042, 2634.682
6512.970, 2657.133
6514.899, 2680.529
6516.827, 2642.347
6518.756, 2651.211
6520.684, 2656.501
6522.613, 2645.853
6524.541, 2615.477
6526.470, 2596.462
6528.398, 2613.868
6530.327, 2636.123
6532.255, 2582.736
6534.184, 2570.242
6536.112, 2600.471
6538.041, 2546.101
6539.969, 2554.464
6541.897, 2573.223
6543.826, 2550.116
6545.754, 2556.249
6547.683, 2518.905
6549.611, 2480.755
6551.540, 2533.138
6553.468, 2524.218
6555.396, 2492.366
6557.325, 2489.364
6559.253, 2489.812
6561.182, 2457.877
6563.110, 2517.644
6565.039, 2437.339
6566.967, 2422.779
6568.896, 2447.103
6570.824, 2435.614
6572.753, 2404.770
6574.681, 2402.875
6576.610, 2412.117
6578.538, 2446.773
6580.467, 2365.632
6582.395, 2355.944
6584.324, 2354.358
6586.252, 2368.817
6588.181, 2402.003
6590.109, 2412.021
6592.038, 2394.809
6593.966, 2361.272
6595.895, 2339.081
6597.823, 2325.343
6599.751, 2305.238
6601.680, 2302.565
6603.608, 2307.919
6605.537, 2291.394
6607.465, 2266.902
6609.394, 2274.081
6611.322, 2300.731
6613.250, 2286.707
6615.179, 2276.569
6617.107, 2285.781
6619.036, 2274.086
6620.964, 2233.620
6622.893, 2228.212
6624.821, 2204.077
6626.750, 2200.860
##END=



