##NAMES=Benitoite
##RRUFFID=R050320
##IDEAL CHEMISTRY=BaTi^4+^Si_3_O_9_
##LOCALITY=San Benito County, California, USA
##OWNER=RRUFF
##SOURCE=American Museum of Natural History
##DESCRIPTION=Blue fragment
##STATUS=The identification of this mineral has been confirmed by X-ray diffraction and chemical analysis
##URL=rruff.info/R050320
##MEASURED CHEMISTRY=Ba_1.00_Ti_1.00_(Si_2.99_Al_0.01_)_Î£=3_O_9_
105.0291, 216.1031
106.9575, 224.3527
108.8860, 233.6469
110.8145, 245.3429
112.7429, 259.5293
114.6714, 275.5322
116.5999, 295.4832
118.5283, 316.3754
120.4568, 332.6656
122.3853, 345.5794
124.3137, 349.1460
126.2422, 337.8241
128.1707, 323.4123
130.0991, 309.4363
132.0276, 297.5594
133.9561, 291.0132
135.8845, 289.6566
137.8130, 295.0183
139.7415, 306.7932
141.6699, 324.7473
143.5984, 350.9877
145.5269, 382.7604
147.4553, 415.9948
149.3838, 449.5067
151.3123, 488.4679
153.2407, 535.5588
155.1692, 584.3369
157.0977, 649.0710
159.0261, 704.0852
160.9546, 717.4554
162.8831, 683.6764
164.8115, 632.8388
166.7400, 550.0240
168.6685, 478.1715
170.5969, 427.0892
172.5254, 396.2433
174.4539, 387.5259
176.3823, 400.7484
178.3108, 422.7448
180.2393, 456.3097
182.1677, 489.2457
184.0962, 518.8901
186.0247, 547.1488
187.9531, 573.3011
189.8816, 598.9748
191.8101, 630.4655
193.7385, 667.5588
195.6670, 711.3641
197.5955, 770.2269
199.5239, 822.5399
201.4524, 860.1668
203.3809, 885.3633
205.3093, 895.6872
207.2378, 890.2831
209.1663, 902.3083
211.0947, 936.1027
213.0232, 980.9232
214.9517, 1055.639
216.8801, 1119.679
218.8086, 1141.443
220.7371, 1121.458
222.6655, 1069.594
224.5940, 979.7832
226.5225, 895.6787
228.4509, 829.2892
230.3794, 770.9959
232.3079, 720.3820
234.2363, 674.4763
236.1648, 625.3051
238.0933, 573.7201
240.0217, 534.3972
241.9502, 509.9324
243.8787, 497.7402
245.8071, 498.1156
247.7356, 508.2179
249.6641, 527.7155
251.5925, 555.2540
253.5210, 587.5668
255.4495, 625.6223
257.3779, 662.5806
259.3064, 704.0773
261.2349, 735.7550
263.1633, 758.6837
265.0918, 764.3870
267.0203, 741.2488
268.9487, 692.4129
270.8772, 631.2377
272.8057, 549.1845
274.7341, 473.6125
276.6626, 405.3249
278.5911, 346.5790
280.5195, 300.2176
282.4480, 263.8217
284.3765, 234.1370
286.3049, 211.3418
288.2334, 193.5609
290.1619, 182.6544
292.0903, 173.7467
294.0188, 166.3762
295.9473, 160.6064
297.8757, 155.9714
299.8042, 153.0449
301.7327, 153.5070
303.6611, 158.0773
305.5896, 164.0066
307.5181, 171.8885
309.4465, 180.0211
311.3750, 188.3319
313.3035, 196.3227
315.2319, 202.2473
317.1604, 207.6499
319.0889, 217.1549
321.0173, 230.1732
322.9458, 250.5363
324.8743, 278.3267
326.8027, 313.1592
328.7312, 359.0879
330.6597, 408.1137
332.5882, 457.0650
334.5166, 504.2634
336.4451, 543.2139
338.3736, 572.3667
340.3020, 601.8378
342.2305, 631.6063
344.1590, 662.7338
346.0874, 695.9174
348.0159, 730.3534
349.9444, 763.3771
351.8728, 797.6891
353.8013, 840.6868
355.7298, 892.3522
357.6582, 952.6826
359.5867, 1026.116
361.5152, 1094.803
363.4436, 1159.802
365.3721, 1210.011
367.3006, 1247.705
369.2290, 1262.686
371.1575, 1232.040
373.0860, 1158.646
375.0144, 1058.767
376.9429, 924.2653
378.8714, 800.1274
380.7998, 694.0970
382.7283, 607.4134
384.6568, 542.8038
386.5852, 496.8139
388.5137, 470.3300
390.4422, 459.1506
392.3706, 451.6910
394.2991, 449.4091
396.2276, 435.4777
398.1560, 402.1287
400.0845, 362.5577
402.0130, 312.8763
403.9414, 264.7772
405.8699, 226.3995
407.7984, 196.6468
409.7268, 173.3314
411.6553, 156.3249
413.5838, 143.4049
415.5122, 135.1499
417.4407, 129.7198
419.3692, 127.9285
421.2976, 127.4016
423.2261, 127.5253
425.1546, 128.0674
427.0830, 128.7421
429.0115, 129.6159
430.9400, 130.8501
432.8684, 132.3046
434.7969, 134.7698
436.7254, 138.1478
438.6538, 142.6520
440.5823, 148.8846
442.5108, 155.6390
444.4392, 162.2942
446.3677, 169.0088
448.2962, 175.8588
450.2246, 182.8752
452.1531, 190.6147
454.0816, 199.5194
456.0100, 208.1133
457.9385, 216.5761
459.8670, 224.4197
461.7954, 231.7445
463.7239, 238.0559
465.6524, 242.9007
467.5808, 246.7183
469.5093, 249.9154
471.4378, 252.5422
473.3662, 255.4892
475.2947, 259.2216
477.2232, 260.9173
479.1516, 259.7687
481.0801, 258.1138
483.0086, 256.0359
484.9370, 254.6357
486.8655, 252.9295
488.7940, 253.3124
490.7224, 259.0049
492.6509, 269.6132
494.5794, 283.9781
496.5078, 302.2704
498.4363, 318.6926
500.3648, 333.7816
502.2932, 343.1479
504.2217, 343.3843
506.1502, 340.2832
508.0786, 333.7343
510.0071, 327.3694
511.9356, 322.5599
513.8640, 321.1829
515.7925, 328.9432
517.7209, 345.0110
519.6494, 365.5779
521.5779, 390.6382
523.5063, 418.8009
525.4348, 450.3937
527.3633, 484.1519
529.2917, 521.2386
531.2202, 558.5883
533.1487, 601.8204
535.0771, 639.1917
537.0056, 655.6392
538.9341, 652.1234
540.8625, 626.2888
542.7910, 577.9625
544.7195, 528.7581
546.6479, 476.0572
548.5764, 435.3463
550.5049, 406.9712
552.4333, 392.2200
554.3618, 390.2282
556.2903, 403.4218
558.2188, 438.8058
560.1472, 487.5182
562.0757, 539.5533
564.0042, 593.9327
565.9326, 646.1161
567.8611, 694.6696
569.7896, 750.1063
571.7180, 843.7999
573.6465, 891.1752
575.5750, 889.8530
577.5034, 839.9847
579.4319, 709.5734
581.3604, 566.1999
583.2889, 442.2520
585.2173, 339.2925
587.1458, 261.5947
589.0743, 206.5950
591.0027, 167.0390
592.9312, 143.8517
594.8597, 126.6412
596.7881, 116.7141
598.7166, 109.0523
600.6451, 103.9486
602.5735, 99.92452
604.5020, 96.80759
606.4305, 94.29680
608.3589, 92.41624
610.2874, 90.89757
612.2159, 89.65002
614.1443, 88.57433
616.0728, 87.46869
618.0013, 86.36491
619.9297, 85.52422
621.8582, 84.97228
623.7867, 84.36715
625.7151, 83.74335
627.6436, 82.78476
629.5721, 81.24911
631.5005, 79.87107
633.4290, 78.71718
635.3575, 78.09022
637.2859, 78.57498
639.2144, 79.17036
641.1429, 79.01940
643.0714, 78.42319
644.9998, 77.82330
646.9283, 77.21306
648.8568, 76.41578
650.7852, 75.49944
652.7137, 75.48697
654.6422, 76.60220
656.5706, 76.94898
658.4991, 75.76832
660.4276, 74.98204
662.3560, 75.75917
664.2845, 76.02942
666.2130, 74.68805
668.1414, 73.20409
670.0699, 72.38528
671.9984, 72.03748
673.9268, 72.17577
675.8553, 72.51831
677.7838, 72.48262
679.7122, 72.19684
681.6407, 72.15740
683.5692, 72.37127
685.4976, 72.32787
687.4261, 71.89783
689.3546, 71.52910
691.2830, 71.24335
693.2115, 71.05951
695.1400, 71.18492
697.0684, 71.10778
698.9969, 70.02678
700.9254, 69.49374
702.8538, 71.02168
704.7823, 72.91760
706.7108, 73.52462
708.6392, 73.62834
710.5677, 74.31450
712.4962, 75.35424
714.4246, 75.87007
716.3531, 75.88060
718.2816, 76.59309
720.2100, 78.23408
722.1385, 79.60814
724.0670, 80.47667
725.9954, 81.74416
727.9239, 83.82191
729.8524, 85.40376
731.7808, 85.81013
733.7093, 86.46508
735.6378, 87.94746
737.5662, 89.81174
739.4947, 92.35252
741.4232, 94.56120
743.3516, 95.59068
745.2801, 95.95242
747.2086, 96.58428
749.1370, 96.90709
751.0655, 95.07941
752.9940, 91.67768
754.9224, 90.05321
756.8509, 90.20731
758.7794, 89.06612
760.7078, 86.51431
762.6363, 84.83126
764.5648, 84.37123
766.4932, 83.46639
768.4217, 81.62502
770.3502, 80.06965
772.2786, 79.09127
774.2071, 78.51990
776.1356, 78.74898
778.0640, 78.74205
779.9925, 77.68133
781.9210, 76.75319
783.8494, 76.88443
785.7779, 77.34444
787.7064, 77.43046
789.6348, 77.41595
791.5633, 77.91766
793.4918, 78.50159
795.4202, 78.00035
797.3487, 76.85658
799.2772, 76.26176
801.2056, 76.21175
803.1341, 76.82161
805.0626, 78.04715
806.9910, 78.12549
808.9195, 76.66965
810.8480, 75.99529
812.7764, 76.57838
814.7049, 77.25372
816.6334, 78.22034
818.5618, 78.68480
820.4903, 78.13712
822.4188, 77.75887
824.3472, 77.85428
826.2757, 78.12585
828.2042, 78.60157
830.1326, 79.03358
832.0611, 79.01492
833.9896, 79.23170
835.9180, 80.33659
837.8465, 81.75041
839.7750, 83.08498
841.7034, 84.30570
843.6319, 85.26176
845.5604, 86.14497
847.4888, 87.32713
849.4173, 88.68880
851.3458, 89.81393
853.2742, 90.81255
855.2027, 92.27377
857.1312, 94.18494
859.0596, 96.20942
860.9881, 98.32323
862.9166, 100.8682
864.8450, 103.8229
866.7735, 107.2740
868.7020, 111.0065
870.6304, 116.4800
872.5589, 124.0269
874.4874, 132.0184
876.4158, 139.8579
878.3443, 149.8764
880.2728, 162.9774
882.2012, 176.6856
884.1297, 189.5479
886.0582, 204.8796
887.9866, 222.5645
889.9151, 245.4296
891.8436, 274.0313
893.7720, 309.0488
895.7005, 350.8458
897.6290, 398.7507
899.5574, 456.0347
901.4859, 514.7335
903.4144, 571.6813
905.3428, 625.4510
907.2713, 673.9951
909.1998, 719.8536
911.1282, 761.0787
913.0567, 805.3175
914.9852, 862.2943
916.9136, 927.4476
918.8421, 996.2485
920.7706, 1067.597
922.6990, 1143.035
924.6275, 1217.649
926.5560, 1285.945
928.4844, 1343.381
930.4129, 1380.328
932.3414, 1397.345
934.2698, 1400.476
936.1983, 1384.522
938.1268, 1326.752
940.0552, 1232.908
941.9837, 1129.256
943.9122, 1018.609
945.8406, 915.3153
947.7691, 819.7610
949.6976, 727.3167
951.6260, 637.7396
953.5545, 549.2117
955.4830, 460.0598
957.4114, 384.3041
959.3399, 323.4073
961.2684, 270.8322
963.1968, 226.2723
965.1253, 191.0480
967.0538, 166.8265
968.9822, 147.5900
970.9107, 134.4955
972.8392, 123.3662
974.7676, 114.0162
976.6961, 107.1889
978.6246, 103.6206
980.5530, 100.4059
982.4815, 97.29212
984.4100, 94.51991
986.3384, 92.06172
988.2669, 90.14008
990.1954, 88.70558
992.1238, 88.18016
994.0523, 88.73268
995.9808, 89.91087
997.9092, 91.81697
999.8377, 93.58656
1001.766, 94.98563
1003.695, 96.49787
1005.623, 98.59899
1007.552, 99.47312
1009.480, 98.48208
1011.409, 96.74894
1013.337, 94.11292
1015.265, 92.29069
1017.194, 92.32921
1019.122, 91.42644
1021.051, 88.59640
1022.979, 85.38094
1024.908, 81.89991
1026.836, 78.76743
1028.765, 76.21357
1030.693, 73.87325
1032.622, 71.93043
1034.550, 69.58766
1036.479, 66.04698
1038.407, 63.33350
1040.335, 61.92455
1042.264, 61.31313
1044.192, 61.87868
1046.121, 62.36699
1048.049, 62.45346
1049.978, 62.61483
1051.906, 63.10651
1053.835, 63.36983
1055.763, 63.38192
1057.692, 63.04292
1059.620, 62.18968
1061.549, 61.25768
1063.477, 60.19672
1065.406, 59.26404
1067.334, 58.51178
1069.262, 57.86255
1071.191, 57.07468
1073.120, 56.82827
1075.048, 57.33148
1076.976, 58.13223
1078.905, 59.09700
1080.833, 60.53969
1082.762, 62.88325
1084.690, 64.87684
1086.619, 66.31081
1088.547, 67.62762
1090.476, 68.63441
1092.404, 70.21435
1094.333, 72.95177
1096.261, 74.48440
1098.190, 74.44022
1100.118, 74.18237
1102.047, 73.88232
1103.975, 72.65285
1105.903, 70.26289
1107.832, 68.33159
1109.760, 66.99866
1111.689, 65.18883
1113.617, 62.85030
1115.546, 60.52651
1117.474, 58.21153
1119.403, 56.32022
1121.331, 54.83547
1123.260, 52.90169
1125.188, 50.62696
1127.117, 49.27683
1129.045, 48.68068
1130.974, 48.02526
1132.902, 47.24612
1134.830, 45.73348
1136.759, 43.76703
1138.687, 42.27928
1140.616, 41.15447
1142.544, 40.18175
1144.473, 39.40251
1146.401, 38.85853
1148.330, 38.48206
1150.258, 38.34322
1152.187, 38.17370
1154.115, 37.35841
1156.044, 36.49612
1157.972, 36.46328
1159.901, 36.65599
1161.829, 36.43090
1163.757, 36.12611
1165.686, 36.00813
1167.614, 35.89909
1169.543, 35.57288
1171.471, 35.46666
1173.400, 36.06094
1175.328, 36.47884
1177.257, 36.31540
1179.185, 36.04282
1181.114, 35.67645
1183.042, 35.38420
1184.971, 34.98937
1186.899, 35.08140
1188.828, 36.29182
1190.756, 37.01572
1192.684, 36.87955
1194.613, 36.69015
1196.541, 36.32441
1198.470, 36.17706
1200.398, 36.30828
1202.327, 36.45860
1204.255, 36.66521
1206.184, 36.89282
1208.112, 37.12641
1210.041, 36.66727
1211.969, 35.67245
1213.898, 35.46181
1215.826, 35.79561
1217.755, 35.82707
1219.683, 35.57812
1221.611, 35.06414
1223.540, 34.47019
1225.468, 33.99304
1227.397, 33.66137
1229.325, 33.59159
1231.254, 33.55436
1233.182, 33.36845
1235.111, 33.24368
1237.039, 33.29032
1238.968, 33.24525
1240.896, 33.11546
1242.825, 32.77744
1244.753, 31.97234
1246.682, 31.68940
1248.610, 32.26451
1250.538, 32.68697
1252.467, 32.79435
1254.395, 32.90594
1256.324, 33.07874
1258.252, 33.03524
1260.181, 32.74176
1262.109, 32.27114
1264.038, 31.80529
1265.966, 32.70381
1267.895, 34.26115
1269.823, 33.91706
1271.752, 32.60076
1273.680, 32.00784
1275.609, 31.86566
1277.537, 31.80401
1279.465, 31.99906
1281.394, 32.70564
1283.322, 33.19261
1285.251, 33.05797
1287.179, 32.86559
1289.108, 32.80133
1291.036, 32.72481
1292.965, 32.42842
1294.893, 32.42248
1296.822, 33.02476
1298.750, 33.39683
1300.679, 33.42641
1302.607, 33.54918
1304.536, 33.85215
1306.464, 33.56276
1308.392, 32.77764
1310.321, 32.80671
1312.249, 33.27156
1314.178, 32.91299
1316.106, 32.28203
1318.035, 32.25549
1319.963, 32.19938
1321.892, 31.49270
1323.820, 31.06998
1325.749, 31.41506
1327.677, 31.87018
1329.606, 32.47877
1331.534, 32.61573
1333.463, 31.81599
1335.391, 31.16696
1337.319, 30.96879
1339.248, 31.00031
1341.176, 31.21702
1343.105, 31.46697
1345.033, 31.68436
1346.962, 31.38999
1348.890, 30.84171
1350.819, 30.75986
1352.747, 30.90175
1354.676, 31.00449
1356.604, 30.97878
1358.533, 30.63328
1360.461, 30.21093
1362.390, 29.86375
1364.318, 29.77687
1366.246, 30.03820
1368.175, 30.03689
1370.103, 29.59975
1372.032, 29.51315
1373.960, 29.84259
1375.889, 30.09601
1377.817, 30.29189
1379.746, 30.19895
1381.674, 29.92021
1383.603, 29.97913
1385.531, 30.35009
1387.460, 31.14680
1389.388, 31.78852
1391.317, 31.65681
1393.245, 31.43950
1395.173, 31.67654
1397.102, 31.75652
1399.030, 31.00664
1400.959, 30.81404
1402.887, 31.56428
1404.816, 31.84738
1406.744, 31.65704
1408.673, 32.13015
1410.601, 32.96673
1412.530, 32.87975
1414.458, 32.44848
1416.387, 32.80711
1418.315, 33.40046
1420.244, 33.49191
1422.172, 33.45147
1424.100, 33.74152
1426.029, 33.97220
1427.957, 33.90664
1429.886, 33.89136
1431.814, 33.94382
1433.743, 34.03173
1435.671, 34.22771
1437.600, 34.60670
1439.528, 35.02969
1441.457, 35.23980
1443.385, 35.41831
1445.314, 35.81973
1447.242, 36.19059
1449.171, 36.20197
1451.099, 36.23626
1453.027, 36.60567
1454.956, 36.85154
1456.884, 36.86986
1458.813, 36.85040
1460.741, 36.89115
1462.670, 37.44963
1464.598, 38.13476
1466.527, 38.43081
1468.455, 38.39934
1470.384, 37.42653
1472.312, 36.62577
1474.241, 37.04942
1476.169, 37.59897
1478.098, 38.04507
1480.026, 38.23984
1481.954, 38.14305
1483.883, 37.69210
1485.811, 37.03027
1487.740, 37.08303
1489.668, 37.41853
1491.597, 36.85171
1493.525, 36.16769
1495.454, 36.40224
1497.382, 36.66554
1499.311, 36.25343
1501.239, 35.81243
1503.168, 35.69524
1505.096, 35.76573
1507.025, 35.76921
1508.953, 35.11083
1510.881, 34.19959
1512.810, 33.81463
1514.738, 33.81037
1516.667, 34.07077
1518.595, 34.14033
1520.524, 33.61685
1522.452, 33.29171
1524.381, 33.76511
1526.309, 33.79848
1528.238, 33.09489
1530.166, 32.89882
1532.095, 32.92405
1534.023, 32.67994
1535.952, 32.40983
1537.880, 32.15287
1539.808, 31.98496
1541.737, 31.45707
1543.665, 30.92771
1545.594, 30.95012
1547.522, 30.78245
1549.451, 30.24143
1551.379, 30.25562
1553.308, 30.52301
1555.236, 30.06684
1557.165, 29.68309
1559.093, 29.81740
1561.022, 29.64921
1562.950, 29.78658
1564.879, 29.81059
1566.807, 29.08494
1568.735, 28.93141
1570.664, 29.48818
1572.592, 29.39260
1574.521, 28.98217
1576.449, 29.32305
1578.378, 29.60161
1580.306, 28.43223
1582.235, 27.67097
1584.163, 28.70653
1586.092, 29.09026
1588.020, 28.29932
1589.949, 27.93690
1591.877, 28.10439
1593.806, 27.83310
1595.734, 27.38579
1597.662, 27.45127
1599.591, 27.57842
1601.519, 27.28032
1603.448, 27.03860
1605.376, 27.09274
1607.305, 27.06460
1609.233, 26.97039
1611.162, 26.59835
1613.090, 26.11026
1615.019, 26.50770
1616.947, 26.96681
1618.876, 26.42076
1620.804, 26.02492
1622.733, 26.35907
1624.661, 26.70406
1626.589, 26.92609
1628.518, 26.79908
1630.446, 26.50414
1632.375, 26.47507
1634.303, 26.46720
1636.232, 26.41871
1638.160, 26.31877
1640.089, 26.05572
1642.017, 25.87768
1643.946, 25.86364
1645.874, 26.56563
1647.803, 27.26757
1649.731, 26.71211
1651.660, 26.12082
1653.588, 26.38706
1655.516, 26.42501
1657.445, 25.89666
1659.373, 25.93596
1661.302, 26.35448
1663.230, 26.15870
1665.159, 25.59769
1667.087, 25.04475
1669.016, 24.98962
1670.944, 25.62848
1672.873, 25.74099
1674.801, 25.36515
1676.730, 25.11110
1678.658, 24.88047
1680.587, 24.69708
1682.515, 24.54921
1684.443, 24.52565
1686.372, 24.52810
1688.300, 23.97433
1690.229, 23.61115
1692.157, 23.99278
1694.086, 24.22176
1696.014, 24.01131
1697.943, 24.02528
1699.871, 24.20426
1701.800, 23.84123
1703.728, 23.12444
1705.657, 22.54935
1707.585, 22.85062
1709.514, 23.54726
1711.442, 23.22231
1713.370, 22.63426
1715.299, 22.57567
1717.227, 22.71015
1719.156, 22.87723
1721.084, 23.02681
1723.013, 23.35601
1724.941, 23.13993
1726.870, 22.44102
1728.798, 22.56634
1730.727, 22.92744
1732.655, 22.52935
1734.584, 21.90736
1736.512, 21.62559
1738.441, 21.47812
1740.369, 21.17756
1742.297, 21.20329
1744.226, 21.51385
1746.154, 22.16710
1748.083, 22.29606
1750.011, 21.37322
1751.940, 20.80350
1753.868, 20.84554
1755.797, 21.16433
1757.725, 21.56101
1759.654, 21.70902
1761.582, 21.40506
1763.511, 20.76261
1765.439, 20.59958
1767.368, 21.03326
1769.296, 21.15805
1771.224, 21.18627
1773.153, 21.53945
1775.081, 21.29255
1777.010, 20.77712
1778.938, 20.78041
1780.867, 20.87720
1782.795, 20.75096
1784.724, 20.38159
1786.652, 20.27739
1788.581, 20.43999
1790.509, 20.35042
1792.438, 20.40809
1794.366, 20.40607
1796.295, 20.43500
1798.223, 20.81120
1800.151, 20.86456
1802.080, 20.72477
1804.008, 20.76173
1805.937, 20.56854
1807.865, 20.52575
1809.794, 20.67514
1811.722, 20.65702
1813.651, 20.86450
1815.579, 20.94387
1817.508, 20.37306
1819.436, 19.98883
1821.365, 20.10437
1823.293, 20.02992
1825.222, 19.98846
1827.150, 20.71595
1829.078, 21.12068
1831.007, 20.79908
1832.935, 20.47297
1834.864, 20.25526
1836.792, 19.63773
1838.721, 19.01143
1840.649, 19.16926
1842.578, 19.78679
1844.506, 20.42991
1846.435, 20.31073
1848.363, 19.76693
1850.292, 19.62546
1852.220, 19.51436
1854.149, 19.25326
1856.077, 19.54323
1858.005, 19.73158
1859.934, 19.45374
1861.862, 19.37017
1863.791, 19.41549
1865.719, 19.33580
1867.648, 18.87153
1869.576, 18.23727
1871.505, 18.09099
1873.433, 18.69730
1875.362, 19.10529
1877.290, 18.83208
1879.219, 18.58413
1881.147, 18.46968
1883.076, 18.24237
1885.004, 18.08355
1886.932, 18.25982
1888.861, 18.21014
1890.789, 18.34031
1892.718, 18.29079
1894.646, 17.85218
1896.575, 17.66009
1898.503, 17.58189
1900.432, 17.97637
1902.360, 18.36498
1904.289, 18.29194
1906.217, 18.03239
1908.146, 17.91768
1910.074, 18.26542
1912.003, 18.34052
1913.931, 18.11148
1915.859, 17.84772
1917.788, 17.41065
1919.716, 17.62782
1921.645, 17.88236
1923.573, 17.46318
1925.502, 17.38211
1927.430, 17.86776
1929.359, 18.01140
1931.287, 17.87748
1933.216, 17.74208
1935.144, 17.88876
1937.073, 18.15854
1939.001, 17.80326
1940.930, 17.12275
1942.858, 17.35422
1944.786, 18.00592
1946.715, 17.73322
1948.643, 17.29021
1950.572, 17.21137
1952.500, 17.25869
1954.429, 17.39962
1956.357, 17.32121
1958.286, 17.38326
1960.214, 17.60326
1962.143, 17.02988
1964.071, 16.45546
1966.000, 16.76291
1967.928, 17.15880
1969.857, 17.00805
1971.785, 17.07866
1973.714, 17.43893
1975.642, 17.46955
1977.570, 17.29540
1979.499, 17.14565
1981.427, 17.05881
1983.356, 16.80838
1985.284, 16.45385
1987.213, 16.23801
1989.141, 15.84086
1991.070, 15.69420
1992.998, 16.19030
1994.927, 16.27170
1996.855, 15.69888
1998.784, 15.54272
2000.712, 15.77371
2002.641, 16.06205
2004.569, 16.35357
2006.497, 16.24171
2008.426, 15.56099
2010.354, 15.45519
2012.283, 15.97138
2014.211, 15.61119
2016.140, 15.07966
2018.068, 15.04192
2019.997, 15.22789
2021.925, 15.25831
2023.854, 15.23474
2025.782, 15.36858
2027.711, 15.22047
2029.639, 15.14588
2031.568, 14.96382
2033.496, 14.54286
2035.424, 14.21453
2037.353, 14.21393
2039.281, 14.31887
2041.210, 14.54243
2043.138, 14.68495
2045.067, 14.45417
2046.995, 14.42675
2048.924, 14.39596
2050.852, 14.18907
2052.781, 14.20493
2054.709, 13.89176
2056.637, 13.38684
2058.566, 13.37251
2060.495, 13.99610
2062.423, 14.09077
2064.352, 13.96395
2066.280, 13.86442
2068.208, 13.70434
2070.137, 13.35764
2072.065, 13.21557
2073.994, 13.26401
2075.922, 12.78940
2077.851, 12.60455
2079.779, 12.73303
2081.708, 12.72908
2083.636, 12.81136
2085.565, 12.62143
2087.493, 12.34646
2089.422, 12.44751
2091.350, 12.70946
2093.279, 12.72296
2095.207, 12.03055
2097.135, 11.78782
2099.064, 12.54001
2100.992, 12.71171
2102.921, 12.35897
2104.849, 11.98153
2106.778, 12.00077
2108.706, 12.26151
2110.635, 11.86726
2112.563, 11.33685
2114.492, 11.49225
2116.420, 11.64750
2118.349, 11.62527
2120.277, 11.77168
2122.206, 12.06078
2124.134, 12.37370
2126.063, 12.04977
2127.991, 11.96074
2129.919, 12.05646
2131.848, 11.79205
2133.776, 11.63027
2135.705, 11.42506
2137.633, 11.17040
2139.562, 11.29421
2141.490, 11.50799
2143.419, 11.47433
2145.347, 11.64483
2147.276, 11.47272
2149.204, 11.01729
2151.133, 11.30457
2153.061, 11.61441
2154.990, 11.25603
2156.918, 10.94669
2158.846, 11.18158
2160.775, 11.26623
2162.703, 10.84771
2164.632, 10.89730
2166.560, 11.27343
2168.489, 11.50636
2170.417, 11.40154
2172.346, 11.15272
2174.274, 11.11163
2176.203, 11.44925
2178.131, 11.89085
2180.060, 11.97502
2181.988, 11.90804
2183.917, 12.04975
2185.845, 11.86147
2187.773, 11.57538
2189.702, 11.96425
2191.630, 12.53727
2193.559, 12.68239
2195.487, 12.90212
2197.416, 12.89052
2199.344, 12.39557
2201.273, 12.24415
2203.201, 12.17403
2205.130, 12.32715
2207.058, 12.35701
2208.987, 12.30372
2210.915, 12.24132
2212.844, 12.01560
2214.772, 11.69231
2216.700, 11.50357
2218.629, 11.61702
2220.557, 11.40318
2222.486, 11.29289
2224.414, 11.52245
2226.343, 11.60204
2228.271, 11.45474
2230.200, 11.02383
2232.128, 10.67647
2234.057, 10.67337
2235.985, 10.68844
2237.914, 10.79289
2239.842, 11.04854
2241.771, 10.85333
2243.699, 10.18398
2245.627, 10.39737
2247.556, 10.58737
2249.484, 9.969294
2251.413, 9.536042
2253.341, 9.460527
2255.270, 9.397048
2257.198, 9.165539
2259.127, 9.152431
2261.055, 9.305359
2262.984, 9.284747
2264.912, 9.143812
2266.841, 8.988389
2268.769, 8.685162
2270.698, 8.416502
2272.626, 8.421937
2274.554, 8.514853
2276.483, 8.546124
2278.411, 8.741422
2280.340, 8.697137
2282.268, 8.676754
2284.197, 8.531017
2286.125, 8.195285
2288.054, 8.338046
2289.982, 8.624778
2291.911, 8.432787
2293.839, 8.416880
2295.768, 8.427844
2297.696, 8.456819
2299.625, 8.584997
2301.553, 8.652436
2303.481, 8.151121
2305.410, 7.671085
2307.338, 7.914593
2309.267, 7.828814
2311.195, 7.654237
2313.124, 7.983644
2315.052, 8.063406
2316.981, 7.586591
2318.909, 7.376470
2320.838, 7.687572
2322.766, 8.023888
2324.695, 8.174340
2326.623, 8.095063
2328.552, 7.719761
2330.480, 7.517897
2332.408, 7.658338
2334.337, 7.504106
2336.265, 7.464875
2338.194, 7.556067
2340.122, 7.579742
2342.051, 7.600271
2343.979, 7.469209
2345.908, 7.381768
2347.836, 7.534174
2349.765, 7.662642
2351.693, 7.571673
2353.622, 7.203391
2355.550, 7.247270
2357.479, 7.543205
2359.407, 7.656214
2361.335, 7.387262
2363.264, 7.033069
2365.192, 7.233735
2367.121, 7.572654
2369.049, 7.442914
2370.978, 7.341690
2372.906, 7.492718
2374.835, 7.625867
2376.763, 7.205316
2378.692, 6.755994
2380.620, 6.971431
2382.549, 6.879804
2384.477, 6.551266
2386.406, 6.687073
2388.334, 6.953935
2390.262, 7.170736
2392.191, 7.374891
2394.119, 7.477813
2396.048, 7.435464
2397.976, 7.297555
2399.905, 7.087415
2401.833, 6.895275
2403.762, 6.971085
2405.690, 7.012652
2407.619, 6.753632
2409.547, 6.999812
2411.476, 7.148267
2413.404, 6.907035
2415.333, 6.985976
2417.261, 7.086324
2419.189, 6.867780
2421.118, 6.859259
2423.046, 6.987943
2424.975, 6.809585
2426.903, 6.759591
2428.832, 6.833939
2430.760, 6.635575
2432.689, 6.545769
2434.617, 6.401524
2436.546, 6.114300
2438.474, 6.353729
2440.403, 6.293925
2442.331, 6.355741
2444.260, 6.463632
2446.188, 6.265202
2448.116, 6.300213
2450.045, 5.979746
2451.973, 5.966657
2453.902, 6.352709
2455.830, 6.647063
2457.759, 6.312783
2459.687, 5.982636
2461.616, 6.032238
2463.544, 6.199452
2465.473, 6.383801
2467.401, 6.176426
2469.330, 6.072583
2471.258, 6.129067
2473.187, 5.777624
2475.115, 5.693387
2477.043, 6.272447
2478.972, 6.429693
2480.900, 6.267639
2482.829, 6.020081
2484.757, 5.775788
2486.686, 5.524946
2488.614, 5.659684
2490.543, 5.734620
2492.471, 5.767873
2494.400, 5.796821
2496.328, 5.726938
2498.257, 5.707346
2500.185, 5.597445
2502.114, 5.652418
2504.042, 5.768915
2505.970, 5.645930
2507.899, 5.674160
2509.827, 5.710431
2511.756, 5.395253
2513.684, 5.129247
2515.613, 5.004818
2517.541, 5.180563
2519.470, 5.413645
2521.398, 5.627832
2523.327, 5.370443
2525.255, 5.408434
2527.184, 5.725512
2529.112, 5.504408
2531.041, 5.262170
2532.969, 5.349234
2534.897, 5.351406
2536.826, 5.157927
2538.754, 5.090859
2540.683, 5.291690
2542.611, 5.556176
2544.540, 5.610119
2546.468, 5.087602
2548.397, 4.704015
2550.325, 5.246455
2552.254, 5.236341
2554.182, 4.864323
2556.111, 4.888648
2558.039, 5.149583
2559.968, 5.391383
2561.896, 5.346692
2563.824, 5.194443
2565.753, 5.028986
2567.681, 5.173120
2569.610, 5.375456
2571.538, 5.401417
2573.467, 5.156749
2575.395, 5.072520
2577.324, 4.935958
2579.252, 4.875700
2581.181, 4.760959
2583.109, 4.633864
2585.038, 5.185948
2586.966, 5.239454
2588.895, 4.895815
2590.823, 4.704562
2592.751, 4.575885
2594.680, 4.608094
2596.608, 5.005469
2598.537, 4.849359
2600.465, 4.522826
2602.394, 4.653174
2604.322, 4.692163
2606.251, 4.537040
2608.179, 4.437925
2610.108, 4.681245
2612.036, 4.930457
2613.965, 4.885890
2615.893, 4.895422
2617.822, 4.867974
2619.750, 5.013985
2621.678, 4.921214
2623.607, 4.769205
2625.535, 4.894519
2627.464, 4.866727
2629.392, 4.822503
2631.321, 4.544001
2633.249, 4.267196
2635.178, 4.067157
2637.106, 4.292791
2639.035, 4.566103
2640.963, 4.497284
2642.892, 4.031928
2644.820, 4.153756
2646.749, 4.548259
2648.677, 4.659286
2650.605, 4.660502
2652.534, 4.559836
2654.462, 4.226927
2656.391, 3.972646
2658.319, 3.917573
2660.248, 4.153318
2662.176, 3.956130
2664.105, 3.766364
2666.033, 3.695829
2667.962, 3.872139
2669.890, 4.105500
2671.819, 3.917481
2673.747, 3.646032
2675.676, 3.682629
2677.604, 4.044134
2679.532, 4.099778
2681.461, 4.098310
2683.389, 4.061877
2685.318, 4.129343
2687.246, 4.012943
2689.175, 3.593128
2691.103, 3.577258
2693.032, 3.767152
2694.960, 3.990854
2696.889, 3.657772
2698.817, 3.767995
2700.746, 4.158424
2702.674, 3.848064
2704.603, 3.734230
2706.531, 3.935186
2708.459, 3.876262
2710.388, 3.787070
2712.316, 3.681673
2714.245, 3.490367
2716.173, 3.626644
2718.102, 3.822040
2720.030, 3.829282
2721.959, 3.713976
2723.887, 3.611423
2725.816, 3.546198
2727.744, 3.001034
2729.673, 2.913447
2731.601, 3.567490
2733.530, 3.476501
2735.458, 3.220645
2737.386, 3.147987
2739.315, 3.564960
2741.243, 3.634904
2743.172, 3.364861
2745.100, 3.303232
2747.029, 3.319946
2748.957, 3.345201
2750.886, 3.545745
2752.814, 3.402915
2754.743, 3.219146
2756.671, 3.246498
2758.600, 3.280682
2760.528, 3.333035
2762.457, 3.375111
2764.385, 3.508303
2766.313, 3.395067
2768.242, 3.027870
2770.170, 2.850941
2772.099, 2.995482
2774.027, 3.248798
2775.956, 3.160584
2777.884, 3.090535
2779.813, 3.020086
2781.741, 2.885953
2783.670, 3.048902
2785.598, 3.126717
2787.527, 2.753295
2789.455, 2.869341
2791.384, 3.158690
2793.312, 3.415793
2795.240, 3.297173
2797.169, 3.078534
2799.097, 2.875719
2801.026, 3.170915
2802.954, 3.013077
2804.883, 2.615040
2806.811, 2.735188
2808.740, 2.876281
2810.668, 2.943044
2812.597, 3.023972
2814.525, 2.833837
2816.454, 2.590795
2818.382, 2.437294
2820.311, 2.813710
2822.239, 3.056187
2824.167, 3.051386
2826.096, 2.778174
2828.024, 2.614256
2829.953, 2.598176
2831.881, 2.643619
2833.810, 2.692556
2835.738, 2.764026
2837.667, 2.877530
2839.595, 2.829369
2841.524, 2.677927
2843.452, 2.502750
2845.381, 2.300086
2847.309, 2.281060
2849.238, 2.376236
2851.166, 2.443981
2853.094, 2.526115
2855.023, 2.505915
2856.951, 2.336683
2858.880, 2.183375
2860.808, 2.242143
2862.737, 2.466171
2864.665, 2.545617
2866.594, 2.533355
2868.522, 2.521822
2870.451, 2.715387
2872.379, 2.629347
2874.308, 2.388189
2876.236, 2.127360
2878.165, 2.193909
2880.093, 2.352130
2882.021, 2.460525
2883.950, 2.278924
2885.878, 2.124507
2887.807, 2.063936
2889.735, 2.146859
2891.664, 2.057150
2893.592, 2.185882
2895.521, 2.637857
2897.449, 2.153210
2899.378, 1.828284
2901.306, 1.831096
2903.235, 2.038806
2905.163, 1.916028
2907.092, 1.836367
2909.020, 2.091093
2910.948, 1.892327
2912.877, 1.856975
2914.805, 2.048533
2916.734, 1.990127
2918.662, 1.685881
2920.591, 1.599256
2922.519, 2.139170
2924.448, 2.023242
2926.376, 1.950315
2928.305, 2.141205
2930.233, 1.985426
2932.162, 1.871165
2934.090, 1.812154
2936.019, 1.715715
2937.947, 1.827539
2939.875, 1.940143
2941.804, 1.929911
2943.732, 1.825104
2945.661, 1.590970
2947.589, 1.373796
2949.518, 1.395096
2951.446, 1.768855
2953.375, 1.919425
2955.303, 1.644173
2957.232, 1.522507
2959.160, 1.685759
2961.089, 1.864392
2963.017, 1.638422
2964.946, 1.711983
2966.874, 1.747727
2968.802, 1.631629
2970.731, 1.567609
2972.659, 1.507974
2974.588, 1.486895
2976.516, 1.567364
2978.445, 1.431097
2980.373, 1.248835
2982.302, 1.194872
2984.230, 1.704676
2986.159, 1.642893
2988.087, 1.524223
2990.016, 1.986276
2991.944, 1.496991
2993.873, 1.111473
2995.801, 1.199590
2997.729, 1.716293
2999.658, 1.589574
3001.586, 1.426471
3003.515, 1.692735
3005.443, 1.800923
3007.372, 1.642197
3009.300, 1.446258
3011.229, 1.610443
3013.157, 1.595194
3015.086, 1.660001
3017.014, 1.794629
3018.943, 1.724566
3020.871, 1.482010
3022.800, 1.377487
3024.728, 1.810221
3026.656, 1.634452
3028.585, 1.392254
3030.513, 1.267032
3032.442, 1.260946
3034.370, 1.342673
3036.299, 1.541050
3038.227, 1.852077
3040.156, 1.717675
3042.084, 1.554807
3044.013, 1.524597
3045.941, 1.778311
3047.870, 1.892186
3049.798, 1.721268
3051.727, 1.384180
3053.655, 1.440744
3055.583, 1.506051
3057.512, 1.430734
3059.440, 1.162908
3061.369, 1.268342
3063.297, 1.069771
3065.226, 0.8242973
3067.154, 1.132825
3069.083, 1.060492
3071.011, 1.054334
3072.940, 1.280523
3074.868, 1.570779
3076.797, 1.336937
3078.725, 1.299860
3080.654, 1.688285
3082.582, 1.865128
3084.510, 1.637314
3086.439, 1.225210
3088.367, 0.8418369
3090.296, 0.9990380
3092.224, 1.123472
3094.153, 1.025652
3096.081, 0.5882398
3098.010, 0.8695897
3099.938, 1.153364
3101.867, 1.268521
3103.795, 1.156630
3105.724, 1.243557
3107.652, 1.083075
3109.581, 0.7365976
3111.509, 1.025941
3113.438, 1.131700
3115.366, 1.120370
3117.294, 1.160635
3119.223, 1.408249
3121.151, 1.443409
3123.080, 1.181324
3125.008, 0.8771436
3126.937, 1.108479
3128.865, 0.9824098
3130.794, 0.7796957
3132.722, 0.9780289
3134.651, 0.9903125
3136.579, 1.003736
3138.508, 1.143214
3140.436, 1.283747
3142.365, 1.400017
3144.293, 1.279703
3146.221, 1.067618
3148.150, 1.121994
3150.078, 1.141463
3152.007, 1.087236
3153.935, 0.9388306
3155.864, 0.7866974
3157.792, 1.202601
3159.721, 1.285644
3161.649, 0.8986881
3163.578, 0.9272693
3165.506, 0.8299616
3167.435, 1.041695
3169.363, 1.443283
3171.292, 0.9577197
3173.220, 1.027738
3175.148, 0.9717609
3177.077, 0.6543959
3179.005, 1.105956
3180.934, 1.335097
3182.862, 1.260861
3184.791, 1.002818
3186.719, 1.056298
3188.648, 0.9857532
3190.576, 0.7447433
3192.505, 0.4771155
3194.433, 1.052762
3196.362, 1.164849
3198.290, 0.9643966
3200.219, 0.7689187
3202.147, 0.9529133
3204.075, 1.011043
3206.004, 0.9229565
3207.932, 0.8309258
3209.861, 1.063936
3211.789, 0.7475072
3213.718, 0.7523877
3215.646, 1.169938
3217.575, 0.5863780
3219.503, 0.6770267
3221.432, 0.9685073
3223.360, 1.100844
3225.289, 0.7820010
3227.217, 0.8082045
3229.146, 0.9678959
3231.074, 1.055016
3233.002, 0.8110667
3234.931, 0.6108966
3236.859, 0.6273105
3238.788, 0.8314409
3240.716, 0.9898405
3242.645, 1.168810
3244.573, 1.001937
3246.502, 0.8268386
3248.430, 1.156399
3250.359, 0.6291914
3252.287, 0.6381536
3254.216, 0.9124114
3256.144, 0.8050122
3258.073, 1.223220
3260.001, 1.099113
3261.929, 0.8152169
3263.858, 0.7907852
3265.786, 2.232594
3267.715, 1.950360
3269.643, 1.137394
3271.572, 1.046930
3273.500, 1.415560
3275.429, 1.270833
3277.357, 1.175899
3279.286, 1.359693
3281.214, 1.106731
3283.143, 0.8288211
3285.071, 1.146196
3287.000, 1.548243
3288.928, 1.115941
3290.856, 0.6421724
3292.785, 0.7404797
3294.713, 1.015362
3296.642, 1.025334
3298.570, 0.7971520
3300.499, 1.010121
3302.427, 1.201254
3304.356, 1.216449
3306.284, 1.140424
3308.213, 1.319474
3310.141, 1.590223
3312.070, 1.624848
3313.998, 1.152618
3315.927, 1.341820
3317.855, 1.368854
3319.783, 1.184723
3321.712, 0.9210647
3323.640, 1.032160
3325.569, 1.044773
3327.497, 1.182186
3329.426, 1.505221
3331.354, 1.237425
3333.283, 1.114930
3335.211, 1.031437
3337.140, 1.118302
3339.068, 1.500839
3340.997, 1.147429
3342.925, 0.8543032
3344.854, 0.8840654
3346.782, 1.264883
3348.710, 1.249352
3350.639, 0.8543084
3352.567, 0.7690529
3354.496, 0.9757428
3356.424, 0.8776979
3358.353, 1.112158
3360.281, 1.497516
3362.210, 1.460057
3364.138, 0.9009355
3366.067, 1.318702
3367.995, 0.7531472
3369.924, 0.4053950
3371.852, 0.6663164
3373.781, 0.9523720
3375.709, 1.047102
3377.637, 0.7350021
3379.566, 0.7169874
3381.494, 1.291984
3383.423, 0.8664228
3385.351, 0.9480349
3387.280, 1.153638
3389.208, 1.206543
3391.137, 1.106816
3393.065, 1.092064
3394.994, 1.229220
3396.922, 1.093585
3398.851, 0.6982653
3400.779, 1.071949
3402.708, 1.517952
3404.636, 1.163633
3406.564, 0.7507547
3408.493, 1.279788
3410.421, 1.177026
3412.350, 1.086227
3414.278, 0.9620460
3416.207, 0.6225945
3418.135, 1.4046480E-02
3420.064, 0.8770836
3421.992, 1.169989
3423.921, 0.9020126
3425.849, 0.6933624
3427.778, 1.273545
3429.706, 1.274990
3431.635, 1.015234
3433.563, 0.8436646
3435.491, 0.9273542
3437.420, 0.8183209
3439.348, 0.9139439
3441.277, 1.231555
3443.205, 1.354278
3445.134, 0.7920977
3447.062, 0.5701849
3448.991, 0.8193569
3450.919, 1.127657
3452.848, 1.175856
3454.776, 0.7236161
3456.705, 1.183579
3458.633, 1.008652
3460.562, 0.7118469
3462.490, 0.6915023
3464.418, 0.5405973
3466.347, 1.108207
3468.275, 1.070420
3470.204, 0.7976747
3472.132, 0.6739510
3474.061, 0.3383998
3475.989, 0.7798108
3477.918, 1.052666
3479.846, 0.9733261
3481.775, 0.7005932
3483.703, 0.4117794
3485.632, 0.1874504
3487.560, 0.4986359
3489.489, 0.9249008
3491.417, 1.015288
3493.345, 0.9480339
3495.274, 0.7363489
3497.202, 0.7989637
3499.131, 0.8488833
3501.059, 0.6852117
3502.988, 1.028499
3504.916, 0.6562091
3506.845, 0.5132211
3508.773, 0.5872508
3510.702, 0.5864571
3512.630, 0.4991445
3514.559, 0.4064449
3516.487, 0.2640091
3518.416, 0.2991627
3520.344, 0.5797766
3522.272, 0.7265816
3524.201, 0.4579880
3526.129, 0.3743560
3528.058, 0.5651449
3529.986, 0.8170220
3531.915, 0.7380394
3533.843, 0.6401557
3535.772, 0.5160350
3537.700, 0.5015543
3539.629, 0.5755240
3541.557, 0.5687765
3543.486, 0.8129631
3545.414, 0.5895034
3547.343, 0.2257853
3549.271, 0.1963545
3551.199, 0.6640544
3553.128, 0.5547582
3555.056, 0.2564492
3556.985, 0.1167872
3558.913, 8.0987357E-02
3560.842, 9.1646813E-02
3562.770, 0.7020828
3564.699, 0.8595573
3566.627, 0.7374156
3568.556, 0.6011356
3570.484, 0.4819285
3572.413, 7.2669141E-02
3574.341, -0.1258208
3576.270, 9.9742353E-02
3578.198, 0.1117518
3580.126, 4.1694351E-02
3582.055, 0.5597497
3583.983, 0.5620103
3585.912, 0.1580801
3587.840, 6.2517211E-02
3589.769, 0.3122852
3591.697, 0.5842360
3593.626, 0.4920968
3595.554, 0.5951822
3597.483, 0.4090637
3599.411, 0.5747095
3601.340, 0.8805906
3603.268, 0.4027749
3605.197, 0.3384458
3607.125, 0.3928342
3609.053, 0.5950311
3610.982, 0.6226531
3612.910, 0.3622927
3614.839, 0.4345961
3616.767, 0.5534104
3618.696, 0.4960224
3620.624, 0.5011995
3622.553, 0.5385331
3624.481, 0.4448543
3626.410, 0.7380208
3628.338, 0.7324620
3630.267, 0.6167576
3632.195, 0.6147298
3634.124, 0.6831489
3636.052, 0.4948321
3637.980, 0.3907926
3639.909, 0.2403809
3641.837, 0.3956158
3643.766, 0.5880585
3645.694, 0.4889991
3647.623, 0.3631336
3649.551, 0.5190624
3651.480, 0.8097548
3653.408, 0.6542372
3655.337, 0.4368031
3657.265, 0.7292445
3659.194, 0.4595895
3661.122, 0.1407486
3663.051, 0.4060867
3664.979, 0.5998824
3666.907, 0.4876059
3668.836, 0.3848714
3670.764, 0.4157333
3672.693, -8.4276414E-03
3674.621, 8.3714267E-03
3676.550, 0.4032303
3678.478, 0.7218465
3680.407, 0.6331321
3682.335, 0.1954442
3684.264, 0.2016119
3686.192, 0.2261157
3688.121, 0.2968397
3690.049, 0.3257666
3691.978, 0.1289911
3693.906, 0.2858745
3695.834, -0.3723568
3697.763, 5.1960059E-02
3699.691, 0.6892316
3701.620, 0.8108898
3703.548, 0.6106877
3705.477, 0.2715700
3707.405, 0.4061264
3709.334, 0.4497937
3711.262, 0.5648917
3713.191, 0.7089409
3715.119, 0.7290902
3717.048, 0.9515572
3718.976, 0.8567971
3720.905, 0.4164223
3722.833, -6.4532481E-02
3724.761, -0.1896773
3726.690, 0.1249445
3728.618, 0.4456556
3730.547, 0.6154854
3732.475, 0.4319719
3734.404, 0.5123799
3736.332, 0.5450642
3738.261, 0.3671010
3740.189, 0.3587949
3742.118, 0.4961607
3744.046, 0.2040306
3745.975, 0.2931254
3747.903, 0.1958161
3749.832, 8.2349263E-02
3751.760, 0.3545061
3753.688, 1.7893370E-02
3755.617, 0.2951685
3757.545, 0.1923665
3759.474, 0.1352875
3761.402, 0.3447929
3763.331, 0.5945021
3765.259, 0.4980140
3767.188, 0.5335692
3769.116, 0.1005775
3771.045, 0.1938344
3772.973, 0.4386017
3774.902, 0.5023464
3776.830, 0.3635915
3778.759, 2.6221130E-02
3780.687, 2.6626740E-02
3782.615, 0.6980652
3784.544, 0.6238047
3786.472, 0.9017265
3788.401, 1.103523
3790.329, 0.1982993
3792.258, 0.5046953
3794.186, 0.3848345
3796.115, -8.9863367E-02
3798.043, -0.2458892
3799.972, -6.6099199E-03
3801.900, 0.2388963
3803.829, 0.2486046
3805.757, 0.6357242
3807.686, 0.1624229
3809.614, -0.1096728
3811.542, -5.8697712E-02
3813.471, 0.2776891
3815.399, 0.6121970
3817.328, 0.5989299
3819.256, 0.3822949
3821.185, 0.3386297
3823.113, 0.4524972
3825.042, 0.3736476
3826.970, 0.1140734
3828.899, 7.3246427E-02
3830.827, 0.4354352
3832.756, 0.3565373
3834.684, 0.3689834
3836.613, 0.1644229
3838.541, 0.2544311
3840.469, 0.3325746
3842.398, 0.1779197
3844.326, 2.4951659E-02
3846.255, 0.2309402
3848.183, 0.2435228
3850.112, 0.3373087
3852.040, 0.5346442
3853.969, 0.2474436
3855.897, 0.1685411
3857.826, 0.5014949
3859.754, 0.2843430
3861.683, 0.4022786
3863.611, 0.4232840
3865.540, 0.4412054
3867.468, 0.3196318
3869.396, 0.4650822
3871.325, 0.3948844
3873.253, -0.2765169
3875.182, -0.1532320
3877.110, -0.2013110
3879.039, 0.3784772
3880.967, 0.5275742
3882.896, 7.7523008E-02
3884.824, 0.1078558
3886.753, 0.4375548
3888.681, 0.1833892
3890.610, 0.7377812
3892.538, 0.2858765
3894.467, -0.3170652
3896.395, 4.9026322E-02
3898.323, 0.4622180
3900.252, 0.4083547
3902.180, 6.3656300E-02
3904.109, -0.2367060
3906.037, -0.1696976
3907.966, 0.3756615
3909.894, 0.5029944
3911.823, 0.4638167
3913.751, 0.1888666
3915.680, 7.4870568E-03
3917.608, 0.1971659
3919.537, 0.5085331
3921.465, 0.3761059
3923.394, 0.9043654
3925.322, 0.3247930
3927.250, 0.2125812
3929.179, 0.2754789
3931.107, 0.2143270
3933.036, 0.1388231
3934.964, 0.1304016
3936.893, 7.7406960E-03
3938.821, -0.2681197
3940.750, 7.2977751E-02
3942.678, -0.1155517
3944.607, 0.1690061
3946.535, 0.4681388
3948.464, 0.2104088
3950.392, -7.7220343E-02
3952.321, 0.4139703
3954.249, 0.9112809
3956.177, 0.3747846
3958.106, 0.1799023
3960.034, 1.8337101E-02
3961.963, 0.1052321
3963.891, 0.3745227
3965.820, 0.4534391
3967.748, 0.2063227
3969.677, -3.8845640E-02
3971.605, -6.3800700E-02
3973.534, 0.3014520
3975.462, 0.2201421
3977.391, 0.4815818
3979.319, 0.3344809
3981.248, 0.1921283
3983.176, 0.2714323
3985.104, 0.2724323
3987.033, 8.4188357E-03
3988.961, -0.2065944
3990.890, 0.1126921
3992.818, 0.5688415
3994.747, 0.5131146
3996.675, 3.1943720E-02
3998.604, 8.8781402E-02
4000.532, 0.1291563
4002.461, 9.9108897E-02
4004.389, 0.3575254
4006.318, 0.1319354
4008.246, -0.2459329
4010.175, 0.1970709
4012.103, -9.7619608E-02
4014.031, 0.3185589
4015.960, 0.3358466
4017.888, -2.7892581E-04
4019.817, -5.6076441E-02
4021.745, 0.1237376
4023.674, 0.1230309
4025.602, 0.1158842
4027.531, 0.3463167
4029.459, 0.3946534
4031.388, 0.2931474
4033.316, 0.3332172
4035.245, -9.7481459E-02
4037.173, -0.2521239
4039.102, 3.9168458E-02
4041.030, 0.1059458
4042.958, -2.0790510E-04
4044.887, 0.2614349
4046.815, -0.3480255
4048.744, 0.1016371
4050.672, 0.3740214
4052.601, 0.2450711
4054.529, 9.2914797E-02
4056.458, -0.1515092
4058.386, -9.6591823E-02
4060.315, 0.1765066
4062.243, -7.4133351E-02
4064.172, 0.6009426
4066.100, 0.3699107
4068.029, -0.5282400
4069.957, -0.1719319
4071.885, -3.0488821E-02
4073.814, 0.2288909
4075.742, -0.1872579
4077.671, -0.2179830
4079.599, 0.4088284
4081.528, 0.3461053
4083.456, 1.5617890E-02
4085.385, -0.1131929
4087.313, -0.3186701
4089.242, 0.6018992
4091.170, 0.4498257
4093.099, 0.6621821
4095.027, 0.7102783
4096.956, 0.2163193
4098.884, -0.1080139
4100.813, 4.2045679E-02
4102.741, 0.2832918
4104.669, 0.5267746
4106.598, 0.6706151
4108.526, -7.3020652E-02
4110.455, 0.3098690
4112.383, 0.3193910
4114.312, 2.4506940E-02
4116.240, 0.4224148
4118.169, 6.4391747E-02
4120.097, -0.4795459
4122.026, -7.7630587E-02
4123.954, 0.4422923
4125.883, 0.1302728
4127.811, 0.1297527
4129.740, 0.1261857
4131.668, 0.2627766
4133.597, 4.6048172E-02
4135.525, 0.0000000E+00
4137.454, 0.0000000E+00
4139.382, -1.5616460E-02
4141.311, 5.3358030E-02
4143.239, 0.2154773
4145.167, 0.1722284
4147.096, -8.3299559E-03
4149.024, 3.8691621E-02
4150.953, 7.1180463E-02
4152.881, -0.3421873
4154.810, 0.3542476
4156.738, -0.2052006
4158.667, 5.5220999E-02
4160.595, 0.1163297
4162.523, 0.2202035
4164.452, 0.2008713
4166.380, 0.5560332
4168.309, 0.7852870
4170.237, 0.4337409
4172.166, 0.2652139
4174.094, 0.4437785
4176.023, 0.1547416
4177.951, 0.2606789
4179.880, 0.2685935
4181.808, 0.1450954
4183.737, 0.1641917
4185.665, -0.2390906
4187.594, 0.1399826
4189.522, 0.2054695
4191.451, 2.9735900E-03
4193.379, -0.3363953
4195.308, -0.1957678
4197.236, 0.3080193
4199.165, 0.4371835
4201.093, 0.3344640
4203.021, 0.3116367
4204.950, -0.2643302
4206.878, -0.2694504
4208.807, -2.5484450E-03
4210.735, -0.4040672
4212.664, 0.3157866
4214.592, 6.7965262E-02
4216.521, 8.4042393E-02
4218.449, 0.2242528
4220.377, 0.2494333
4222.306, 0.2788245
4224.234, 0.7955615
4226.163, 0.3862992
4228.091, -0.1838139
4230.020, 5.6135610E-02
4231.948, 7.3242903E-02
4233.877, -0.1220759
4235.805, 7.1952832E-03
4237.734, 0.1271692
4239.662, 0.1391854
4241.591, 0.1673213
4243.519, -0.3507662
4245.448, -0.1923206
4247.376, -2.9105119E-02
4249.305, -3.1311061E-02
4251.233, 0.2454331
4253.162, -0.1318206
4255.090, 5.6068748E-02
4257.019, 0.1818348
4258.947, 0.2532050
4260.875, -1.9353019E-02
4262.804, -4.5817988E-03
4264.732, 0.5971230
4266.661, 0.3546823
4268.589, -0.2367262
4270.518, 4.7746439E-02
4272.446, 0.3812324
4274.375, -0.2434404
4276.303, -0.3053268
4278.231, 0.4867658
4280.160, 9.5017657E-02
4282.088, -0.2241707
4284.017, -0.2142195
4285.945, -0.8032734
4287.874, 6.1692592E-02
4289.802, 0.4119876
4291.731, -0.3507096
4293.659, 4.5813542E-02
4295.588, 0.2257612
4297.516, -0.1559297
4299.445, -0.1145454
4301.373, -0.1884268
4303.302, -0.2700675
4305.230, -2.4790160E-02
4307.159, -0.1689517
4309.087, -0.2579282
4311.016, -0.1159059
4312.944, -1.7510319E-02
4314.873, -0.2789292
4316.801, -0.3917282
4318.729, 0.2259562
4320.658, -2.2809140E-03
4322.586, 0.3698583
4324.515, 0.2923061
4326.443, 0.3091097
4328.372, -5.1864639E-02
4330.300, -0.1812203
4332.229, 0.2269964
4334.157, -0.1708507
4336.085, 8.7816827E-02
4338.014, 0.2730365
4339.942, 0.2731608
4341.871, 0.3227204
4343.799, 6.0027499E-02
4345.728, -0.1820976
4347.656, 8.5066088E-02
4349.585, 0.1638317
4351.513, -0.4713009
4353.442, -0.1186033
4355.370, 0.5169171
4357.299, -3.4075379E-02
4359.227, 0.2802870
4361.156, 0.2400139
4363.084, 0.1515887
4365.013, 0.4684014
4366.941, 0.9326460
4368.870, 0.1440083
4370.798, 0.8076178
4372.727, 3.0590000E-02
4374.655, 1.059616
4376.583, -0.1847383
4378.512, 0.1975020
4380.440, 0.8005652
4382.369, 0.3103081
##END=



